5,20556047443066E-13;
-6,12554776592947E-14;
-5,0109857623785E-13;
-2,36356239417108E-13;
5,15678264034463E-13;
3,69385398252006E-13;
-6,32589253023429E-15;
2,90867214271951E-13;
3,24749032122761E-13;
5,48058629640675E-13;
1,00474136262499E-12;
4,70611303394669E-13;
1,52730772523357E-13;
1,22857795855878E-12;
1,2010645431269E-12;
1,14791222850591E-13;
-4,71838658529812E-13;
4,45158984584628E-13;
1,22459820738421E-12;
1,00122368421927E-13;
1,51952005649772E-13;
4,14161493571729E-13;
3,69077373324581E-13;
6,39851904736833E-13;
4,03954281577414E-13;
1,04968955948075E-12;
9,12927437408124E-13;
2,88391975052929E-13;
5,00853702743519E-13;
3,35167019107216E-13;
2,41211311817541E-16;
3,14950528347228E-13;
5,78106476737001E-13;
3,46628296229313E-13;
7,26203729559742E-13;
4,18084864236109E-13;
-1,99995107551507E-13;
1,6217212005165E-13;
7,1815709873049E-13;
9,78290031981072E-13;
1,14399960941085E-13;
2,13248999944871E-14;
7,40271497618638E-13;
1,27928177568629E-13;
-1,73672783491831E-13;
4,72396437636645E-13;
3,55712136706684E-13;
-2,36077497866354E-13;
1,45221026274139E-13;
4,03134963311567E-13;
8,50016552109467E-14;
5,36547323184877E-13;
1,00567466715812E-12;
4,49773903441688E-13;
-1,98865344146871E-13;
4,85427828273109E-13;
6,98439783812435E-13;
8,29726649988934E-14;
1,39021196706187E-13;
-8,20435205308184E-14;
8,32670602281182E-13;
1,21245808263958E-12;
-5,20893095643256E-14;
2,22136111080305E-13;
4,59765446865341E-13;
6,67381231220299E-14;
1,81781999591394E-13;
-1,70498751740755E-13;
-6,15780330482074E-13;
-3,22267394969038E-13;
5,22574074922582E-15;
4,2392688098497E-13;
8,214287010773E-13;
5,22024239235592E-13;
5,24966525817518E-13;
5,42872636258045E-13;
-1,48334530124202E-14;
-1,12528700681964E-13;
6,43444619432039E-13;
4,46448318678303E-13;
-2,39773694651158E-13;
7,15783557966564E-13;
2,15689748673978E-13;
-7,31290947726092E-13;
8,47123653478049E-13;
1,00848513644516E-12;
-2,17910454090159E-13;
-5,17954911165807E-13;
-2,05261951276728E-15;
1,02403400511248E-12;
7,04103266603665E-13;
-5,22083183526759E-14;
2,6375402794346E-13;
5,91494244457246E-13;
8,81182873004617E-13;
8,21208886119094E-13;
7,91527909790212E-13;
3,32789466904444E-13;
-4,04520670805524E-13;
7,57157599800229E-13;
9,72313408012695E-13;
9,96563528084236E-13;
1,08121805173915E-12;
-9,59209363656174E-13;
1,92482156621861E-13;
1,22531395088311E-12;
1,55656574544033E-13;
1,59233685656875E-12;
8,02054445413939E-13;
-3,81997460854141E-13;
9,62593423252919E-13;
3,41721801354691E-13;
1,24276408537887E-13;
5,46017753409246E-13;
-2,32393376372188E-13;
5,23381219667192E-13;
8,61531377562662E-13;
-2,63702293977999E-13;
-6,7359271323586E-14;
7,34666567819531E-13;
6,25805003633361E-13;
-1,03713776060141E-13;
-3,02939647178095E-13;
6,51721258311213E-13;
1,23180181511878E-12;
6,18144860957314E-13;
3,21688390214432E-13;
6,49372390237815E-13;
4,11789591496687E-13;
2,00233830478582E-13;
7,52058195616606E-13;
6,71135401175173E-13;
3,88651648045303E-13;
6,34070296102448E-13;
9,02558102511933E-13;
1,15014531520834E-12;
3,19941008089366E-13;
2,80302344860787E-14;
9,21325333333369E-13;
-3,78240464424323E-13;
-9,58693538623659E-13;
4,68749655792891E-13;
-5,61546040283222E-13;
-6,44602868540303E-13;
8,90361291827308E-13;
9,30838206529697E-13;
8,91807109375205E-13;
4,73321736212715E-13;
9,2586770881818E-14;
3,85997431023398E-13;
8,61022701561855E-13;
3,72593428034904E-13;
-4,799845658166E-14;
5,30301811964296E-13;
-2,02282260837158E-15;
1,20359354195977E-13;
9,65781070387719E-13;
3,93130178368649E-13;
-1,56954716949379E-14;
5,05283628765183E-13;
7,42299693656954E-13;
5,41368690745763E-13;
3,59426425735931E-13;
-3,18200567179833E-13;
1,76596177245854E-14;
1,2974335998263E-12;
7,89535784765902E-13;
4,54487946909394E-13;
8,168836857602E-13;
-1,80291316588145E-13;
-2,32973802966699E-13;
1,08624694709495E-12;
8,05764012530983E-13;
4,1343868063882E-14;
7,02149838124641E-13;
5,27557578123578E-13;
-2,48378891093566E-13;
4,47524202793227E-13;
4,43466296886408E-13;
-4,46780637278992E-14;
8,19909105686157E-13;
8,27663292796743E-13;
2,78205381881118E-13;
6,29191906070887E-13;
7,37689528859886E-13;
2,01618928826936E-13;
1,82143672435032E-13;
9,96435122381247E-13;
6,9888791564753E-13;
-2,7702876060758E-13;
8,56407866417628E-14;
4,59501751597309E-13;
5,65772102383325E-14;
3,91084276817206E-13;
7,27359288637945E-13;
6,04245287981218E-13;
3,39953941109471E-14;
-5,51969690783526E-13;
2,11274885923183E-13;
4,16276495489147E-13;
8,46243818271672E-13;
1,15405569764849E-12;
-2,07083633574549E-14;
6,74299420543631E-13;
9,19216737014156E-13;
8,91105534140446E-14;
6,05848080820332E-13;
2,46198757254126E-13;
3,81223143461259E-13;
9,04112508098278E-13;
6,32485765995445E-13;
1,20994207979194E-12;
8,74225353632055E-13;
-3,15151069803744E-14;
2,82715137819872E-13;
6,55027614369649E-13;
1,67296141949134E-13;
2,7458173510252E-13;
1,22598616995649E-12;
6,50286399201304E-13;
2,85905710517366E-13;
6,79785817479759E-13;
1,46375104647502E-13;
3,56927425181472E-13;
6,78133820802305E-13;
9,68506350337737E-13;
9,89062013102968E-13;
1,28021703158468E-13;
6,6943606304832E-13;
1,05260071429555E-12;
7,70888072234788E-13;
6,26032144465226E-13;
-7,45830207803168E-14;
-4,04258329659169E-13;
-1,23217107348888E-13;
5,04856582126188E-13;
-1,72621954202081E-15;
1,39123232586554E-13;
1,50138088662587E-12;
9,21886906620247E-13;
2,82078277326233E-13;
-2,18036105923639E-13;
-8,13835299342552E-13;
1,71163510103122E-13;
5,96511966140767E-14;
-2,25387838639386E-13;
1,06464993195822E-12;
7,97430869100639E-13;
1,66436598241861E-13;
2,75997145226325E-13;
8,76042395846554E-14;
5,37407580014534E-13;
4,37180315907861E-13;
6,03771178881026E-13;
7,78347701683345E-13;
2,31005746641992E-13;
8,28208256591966E-13;
8,07171272903271E-13;
9,22925447706595E-13;
7,69340967294913E-13;
-1,81169288125611E-13;
7,80073467725708E-13;
1,05437000473143E-12;
3,13487448306934E-13;
2,38070709825678E-14;
-1,11956301963897E-13;
2,16042700377282E-14;
7,22939978516895E-14;
7,23541403892954E-13;
6,2555221333599E-13;
-2,3761044863337E-13;
-4,77640576236347E-13;
-4,94603716177704E-13;
1,18013687678852E-13;
5,97661908744032E-13;
5,66203604725761E-13;
2,22250667767713E-13;
-2,50829446931025E-13;
3,77404810768703E-13;
8,08835124551776E-13;
3,89324562044195E-13;
3,30738265005406E-13;
4,98477201915896E-13;
5,9973430466098E-13;
1,93718361016444E-13;
-1,98736635357148E-13;
3,33314039412834E-13;
1,18422694432167E-12;
1,25835630445062E-12;
4,48120036256022E-13;
-1,72754603231759E-13;
-1,45899619211309E-13;
-2,40666955917583E-13;
-1,12442848603824E-13;
5,32193677655993E-13;
4,58310383906626E-13;
3,57023118078929E-13;
3,24901116704413E-13;
-9,29630010970061E-14;
-1,39185787537856E-14;
6,20754554857623E-14;
-2,78957435097802E-14;
3,6052329708606E-13;
7,29642499813679E-13;
2,27505324069973E-13;
1,35533394963377E-13;
2,84643768624873E-13;
5,29952997146367E-14;
2,3432053882694E-13;
2,17515817811479E-13;
6,88954381661286E-13;
6,61888620707714E-13;
9,41295482728447E-14;
8,61864230431104E-13;
7,02972285087278E-13;
6,64885999343658E-15;
8,66099558430496E-13;
1,51371605254536E-12;
9,76303220737437E-13;
3,09796818532752E-13;
1,92612500910181E-13;
3,12959320038247E-13;
4,48274772164126E-13;
6,79217158016168E-13;
1,02030599531052E-12;
1,05544340617471E-12;
6,13803975163522E-13;
5,54727607373698E-15;
-3,78458356209552E-13;
-2,4275561183971E-14;
6,90852307401957E-13;
8,31642744943794E-13;
4,59775741352722E-13;
6,33700085446603E-13;
6,8951837095348E-13;
1,03900457085027E-13;
-6,79690679434695E-14;
2,18832849683187E-13;
2,15608665015486E-13;
8,95449354448626E-14;
9,1127933157052E-13;
1,043054779373E-12;
-8,74956342887001E-14;
2,04129502573873E-13;
6,3304880148197E-13;
-3,22102386298955E-13;
-5,49952270756239E-14;
5,12281135923243E-13;
8,03661520050168E-14;
5,35391968450162E-13;
7,85669459062152E-13;
8,37916900424225E-13;
8,74374854346412E-13;
3,99143648613662E-13;
7,45005273138748E-13;
1,04507530550728E-12;
1,07965714789045E-12;
7,28564177404412E-13;
3,69420422342956E-13;
1,67173835796857E-13;
-2,82887325212328E-14;
9,43442296112881E-13;
8,31607561845439E-13;
4,03868873516598E-13;
2,09034296479035E-13;
-2,9286614821165E-13;
6,53959207441987E-13;
4,1439030042518E-13;
6,58030274870616E-13;
1,44075409462808E-12;
1,20307508579639E-13;
4,66687702866134E-13;
4,68110002811116E-13;
-5,12290170190119E-13;
2,30895927940625E-13;
-2,5833938079416E-13;
-6,98886346228734E-13;
-4,64005553777833E-15;
2,35331357972074E-13;
6,90295013851043E-13;
-2,51997848177255E-13;
-3,57319725607578E-13;
1,14514548125875E-12;
5,25083413367277E-13;
-2,04378983129576E-14;
8,48800569081012E-14;
2,76887243237652E-13;
2,37135450027824E-13;
1,58581282789458E-13;
1,0010152639691E-12;
2,24001111256375E-13;
1,11463720144335E-13;
8,09430456304624E-13;
1,66946449842363E-13;
5,30450688369029E-13;
8,1603023379012E-13;
1,06811219421974E-13;
-3,10826872707344E-13;
2,62249289906538E-13;
9,43136991859715E-13;
7,3340772669568E-13;
9,85461661441282E-13;
9,77765088437174E-13;
1,43253622124154E-13;
3,34417851973844E-13;
8,11754433210044E-13;
1,7650932326448E-13;
1,99081927659704E-13;
5,16178968078652E-13;
2,86210593747464E-13;
7,72656608696275E-13;
4,68038151782649E-13;
2,18376379424849E-13;
4,7690229349416E-13;
4,90578433714971E-14;
1,62917895802263E-13;
2,39882534563811E-13;
7,15753526057509E-13;
1,01641377533479E-12;
3,43483920008714E-14;
6,63282538256051E-15;
-8,54005846149793E-15;
-2,63379680082277E-13;
6,65036032897079E-13;
8,63642758103227E-13;
6,88097885598806E-13;
2,49381737527832E-13;
-3,31084254878871E-13;
8,9434910576402E-15;
-1,02811260632113E-13;
5,8442129974189E-14;
2,54110190228705E-13;
-4,07177574883309E-13;
-5,88916021026841E-13;
-1,9133389555009E-13;
3,6195924307698E-13;
7,66251760090934E-13;
6,90388588483753E-13;
3,06718030329188E-13;
1,64097481485322E-13;
3,74553977363124E-13;
2,6234655357783E-13;
1,86260417328938E-13;
3,60503557655207E-13;
3,5903380073605E-13;
-1,59878695265749E-13;
-6,74928785902071E-13;
5,39412510298289E-13;
7,87329017076401E-13;
-2,64174844463533E-13;
1,99429678580084E-13;
5,97807431109008E-13;
7,65630480385378E-13;
6,82979384567954E-13;
5,26359954870073E-13;
4,09464099151118E-13;
1,21953622499405E-13;
4,33713778386334E-13;
2,06555008030832E-13;
2,51673152459092E-13;
9,18818007854285E-13;
9,99679277523362E-13;
7,88200660525307E-13;
4,01229616648848E-13;
1,26211367359928E-13;
-2,3556692181849E-14;
-3,49781431985791E-13;
-2,97390070970256E-14;
6,30773884862495E-13;
6,04223313516135E-13;
5,89232875249653E-13;
6,47100385033703E-13;
5,94903460748747E-13;
1,93892699325254E-13;
1,20648363837404E-13;
7,02093844684931E-13;
5,78519391707437E-13;
3,69178092723594E-13;
9,48062916362083E-14;
-7,471375877361E-14;
3,44224523196542E-13;
1,5321068597337E-13;
2,66739123669222E-14;
-8,58331707429941E-14;
-3,01650602272411E-13;
1,90094736330818E-13;
7,02038115814725E-13;
9,11951498110287E-13;
6,63039197124941E-14;
-1,01702811610298E-13;
7,12681763981961E-13;
6,22838539969248E-13;
9,57343009566476E-13;
5,10932769947194E-13;
1,30478314795282E-13;
6,66695583048725E-13;
-4,28408863455389E-13;
-4,50267874990799E-13;
4,21077154311937E-13;
2,56573398708375E-13;
5,987204191636E-13;
2,2817585423619E-13;
-4,02122638849532E-13;
-1,85548561259771E-13;
1,84198478316306E-13;
4,60464463160697E-13;
1,93283296480162E-13;
1,38253971329667E-13;
4,24689778749518E-13;
3,25940417281176E-13;
1,60157765519914E-13;
-2,3912476526884E-13;
-2,46711470488599E-13;
1,00393390710381E-12;
1,13995245256115E-12;
-6,13865570986286E-14;
4,18565741729693E-14;
1,34764745480079E-13;
1,66042747714286E-13;
1,56634806944724E-12;
1,28510087738909E-12;
1,85445116652448E-13;
7,38555225446845E-13;
3,94415738243859E-13;
-1,96767418698041E-13;
2,92927190818769E-13;
7,0009136360306E-13;
6,80582327420081E-13;
4,37863323963257E-13;
6,17942097373596E-13;
6,20945013676963E-13;
-2,20079149399685E-13;
-9,8885239187127E-16;
6,52895439880654E-13;
-3,50022174623329E-13;
4,32780544790013E-13;
1,18097707460892E-12;
-2,93285639089556E-14;
9,71629385984491E-13;
6,89804165924201E-13;
-3,64372862298462E-13;
8,50196773345563E-13;
2,6899664962037E-13;
3,09628959213379E-13;
1,29534499135612E-12;
2,75497809144995E-13;
5,97539328083163E-13;
4,98019686991494E-13;
-4,36098074359056E-13;
-6,83229816308282E-14;
2,12007139822915E-13;
8,36402109375703E-13;
6,69723831141647E-13;
7,28391116908596E-13;
8,42566409213994E-13;
5,48653002507136E-13;
1,10515106588504E-12;
-3,30890182812797E-13;
-9,33020439795727E-13;
1,86358566482108E-13;
-4,80141440893466E-13;
-2,05183616000864E-13;
6,19557040265221E-13;
6,48917326980984E-13;
7,83266573098797E-13;
-2,17744272351887E-13;
-5,10084759201035E-13;
2,40019906575913E-13;
9,02646190823542E-13;
1,28176285050073E-12;
3,67636895020623E-13;
8,75414571523427E-13;
1,04201325506953E-12;
-1,9501651332035E-13;
5,21728457999965E-13;
7,18696634835099E-13;
8,14594332817423E-13;
1,34985776629968E-12;
1,0837958984193E-12;
8,28649958914505E-13;
-4,16681373161077E-14;
1,7370277895365E-13;
6,41682958655992E-13;
5,17552345195478E-13;
1,17169433463972E-12;
4,30013211596089E-13;
-7,45204967519557E-13;
-1,02837380456603E-13;
5,04626613349863E-13;
3,50878202736435E-13;
7,93287932212063E-13;
9,5015978650504E-13;
4,40680172939407E-14;
3,33260001896527E-14;
3,25932878855371E-13;
-2,2735405969842E-13;
3,23138942838479E-13;
1,00999929202161E-12;
6,15381261122692E-13;
1,37627912733862E-13;
-5,39174982984327E-13;
-8,71555258026162E-14;
8,39093229398417E-13;
4,63074631512853E-13;
6,22975469892265E-13;
1,02041158871398E-12;
6,06862008709578E-13;
5,65738569491978E-13;
1,17527374131874E-13;
2,27826336618211E-13;
1,23629899871418E-12;
2,49510190332508E-13;
-7,01833050729924E-13;
5,38968265362957E-13;
7,4311877943649E-13;
2,34032941561487E-13;
9,23105248030108E-13;
4,77451792071755E-13;
2,14688792061731E-13;
2,97570818507905E-13;
1,44033170588999E-13;
6,79252506332588E-13;
-1,58949968966198E-13;
2,59834565966964E-13;
7,28230140656094E-13;
1,14428746613433E-13;
9,51681249591898E-13;
3,76072094378985E-13;
1,01205399374294E-15;
3,80383154212254E-13;
2,16462743068082E-13;
2,66652947463486E-13;
-2,39847969657114E-13;
3,5170116125456E-13;
3,56995840468638E-13;
-2,37598400698224E-13;
4,45323222553117E-13;
8,74193326319928E-14;
5,69899816148668E-14;
5,69216168665938E-13;
4,83425547020639E-13;
1,37071334896637E-13;
-7,61678713163312E-13;
-4,28097052970253E-13;
8,74013647718767E-13;
8,9798741333382E-13;
6,06939839000521E-14;
5,99224904919183E-15;
2,79289334662353E-13;
1,73773853515517E-13;
3,48415033958905E-13;
4,02205029048631E-13;
6,93168544655754E-13;
7,8935305521375E-13;
-3,58176466175055E-14;
8,23002082453085E-13;
1,26780071585407E-12;
6,58758910051235E-14;
3,38762762929625E-13;
-9,03014573425524E-14;
-1,02101124144031E-13;
9,47390466384655E-13;
3,82820067466689E-13;
3,85867537082273E-13;
6,95208930908199E-13;
2,8066812115956E-13;
1,29631558364901E-14;
1,29873317361317E-13;
7,56336770519861E-13;
3,43484057039672E-13;
-1,98307741706012E-13;
5,94305755893916E-13;
4,65352159268163E-13;
-9,97732637493704E-14;
2,25392014886103E-13;
6,65290128687787E-13;
5,8730483297394E-13;
1,34765347217553E-13;
5,19231074809238E-13;
3,52295374125083E-13;
1,36902396761103E-13;
1,00526763756938E-12;
2,52109619510936E-13;
-1,00551118274213E-12;
-2,28457477015863E-14;
1,0543100104361E-12;
1,13244163665263E-13;
1,88185809087466E-14;
1,14786514309409E-12;
5,94609021135566E-13;
2,01615977630308E-13;
1,05110982127739E-12;
6,7479887464392E-13;
-2,77513119240625E-13;
6,94339825883388E-13;
1,22120298372197E-12;
4,41356463594278E-14;
3,79809665963449E-13;
7,27230997643546E-13;
4,99317523382116E-14;
-2,17641661384643E-14;
3,68401404504964E-13;
7,34836264152119E-13;
4,4782500403089E-13;
5,05394523433317E-13;
8,70023466507306E-13;
1,16724414503305E-12;
2,72406069705637E-13;
-6,74489753586944E-13;
1,05992892422691E-12;
7,84606715191387E-13;
-6,29231459359849E-13;
9,00269545071192E-13;
7,09007068427526E-13;
-7,94205884794056E-13;
4,20677291134928E-13;
8,62829314113531E-13;
-2,53891541381547E-13;
2,9761650060253E-13;
8,82038690911999E-13;
7,00225863426028E-13;
4,79161467731428E-13;
6,44620577451303E-13;
5,91769660906118E-13;
-3,68261905742905E-13;
-2,78441268749421E-13;
1,77865525856578E-14;
4,03331598105285E-13;
8,57639707581622E-13;
1,97386826039873E-13;
4,72845484035368E-13;
3,31360843351136E-13;
-1,7482768646921E-13;
9,6246299832084E-14;
-6,65779850897531E-13;
-5,65258371819495E-13;
1,90345310676053E-13;
7,71252358253556E-13;
1,18423540901965E-12;
4,47731586946939E-13;
3,91830005893519E-13;
7,28075740940375E-13;
3,72631573731822E-13;
4,61154871631538E-14;
1,76338508908832E-13;
6,44450450134621E-13;
1,2583717846371E-12;
1,08634434867577E-12;
-2,49730253658243E-13;
-1,47803720618518E-13;
5,02177772700672E-13;
-1,7295965249879E-13;
-1,78962943789404E-13;
2,19539832026435E-15;
-1,68963920656991E-13;
4,05364242172515E-13;
8,94762826852436E-13;
9,3499642101709E-13;
3,90885331190886E-13;
-4,87250537475949E-13;
-1,78054465230881E-14;
6,20604345635427E-13;
3,91536459112649E-13;
7,50417745754726E-13;
7,22874533827783E-13;
2,83970797478947E-13;
4,86627077693713E-13;
5,23372320175444E-13;
5,921212536682E-13;
6,50747160432242E-13;
3,73625118834865E-13;
-2,67167064785553E-13;
-6,95015134207159E-13;
1,5846216124025E-13;
4,28789119331209E-13;
-3,37863914793061E-13;
-3,8575183048858E-13;
-1,35434827747539E-13;
4,23311187753688E-13;
9,09213537456971E-13;
9,08629702776659E-13;
2,91952826900248E-13;
-3,88315149171229E-13;
5,86451137755562E-13;
9,14857360344577E-13;
9,82252521534272E-14;
4,62308617263279E-13;
6,45178625349353E-13;
1,31117159132657E-14;
-2,43055843166899E-13;
5,10580526531351E-13;
9,94519739277134E-13;
6,92774427617588E-13;
8,97818201548715E-13;
9,27780010892639E-13;
7,10558178439607E-13;
-3,64035016759535E-14;
-5,24785740259058E-13;
7,08246862354228E-13;
1,19875413250864E-12;
0,00933343404686549;
0,0226297298262531;
0,0163727372771234;
0,00943309617707593;
0,0121693917853564;
0,00702616733162102;
0,00563481713100857;
0,00458271005444343;
0,000840500090350814;
0,00103239237199862;
-0,00119043949546642;
-0,00199195265846285;
-0,00280713693585084;
-0,00455368131956197;
-0,00488732499949432;
-0,00585590070827111;
-0,00594121727236319;
-0,00618248832298276;
-0,00699357666804923;
-0,00792070354706381;
-0,00934888799448238;
-0,010242888711546;
-0,0105184993947561;
-0,0101085231430095;
-0,00920766466615344;
-0,00843029680220206;
-0,00783043416886013;
-0,00745747149685304;
-0,0070480532788312;
-0,00641867706917928;
-0,00567545363257051;
-0,004958487271928;
-0,00445308141438515;
-0,00409076741140978;
-0,00366382586794079;
-0,00302656743785526;
-0,00222823254425129;
-0,00157282907371;
-0,00136107645948634;
-0,00166524557401702;
-0,00222572542240639;
-0,00258706177210696;
-0,00240676232073865;
-0,00165718471591062;
-0,000624734014340195;
0,000316669698242562;
0,000963663523308845;
0,00137586886826198;
0,00176513174813983;
0,00227846193201618;
0,00287371183670843;
0,00337820905266574;
0,00366494227487506;
0,00378442559172788;
0,00392474763712574;
0,00423344806304655;
0,00465410314829957;
0,0049291294853129;
0,0047853961156063;
0,00416205590814404;
0,00329839411578504;
0,00260120493681983;
0,00238404675913515;
0,00267133447152147;
0,00320917063047514;
0,00366539555825661;
0,00385876826750791;
0,00384594464791046;
0,00381730502351016;
0,00390618887406868;
0,00407638930714823;
0,00417461995723618;
0,00408914816332098;
0,00386593851153596;
0,00367395077482062;
0,00364551935672646;
0,00373088376165009;
0,00370125625880264;
0,00331394893891752;
0,00251555483947691;
0,00151956437353993;
0,000688088782727002;
0,000299921507123859;
0,000376496335281524;
0,000692035009829819;
0,000951432382331259;
0,000993755270807345;
0,000869183490035655;
0,000746304649703706;
0,000742935836308369;
0,000826535917716943;
0,000860914881453777;
0,000746775454608774;
0,000524376747215911;
0,000342641815159518;
0,000317918804927295;
0,000405552501793789;
0,00040286040439358;
9,51196661659281E-5;
-0,000565180948970439;
-0,0107236164878626;
-0,0246910037827205;
-0,0187063544874614;
-0,0116223592942909;
-0,0139972387360972;
-0,00853592289762638;
-0,00701192127236693;
-0,00596902286075467;
-0,0022303398962751;
-0,00231727179434421;
8,97661344151472E-5;
0,00103463609706611;
0,00186474291538554;
0,00353260259857093;
0,00382392664468385;
0,00488786326957195;
0,00516656254284818;
0,00552145619943444;
0,00617835279667876;
0,0066417726516387;
0,00746064874640032;
0,00787759597668606;
0,00802158625579895;
0,00784053012519012;
0,00735462448643367;
0,00695105593279623;
0,00655991790468214;
0,00626843174511335;
0,00594145075906992;
0,00548465812338006;
0,00497855075648167;
0,00445879659178418;
0,00403463682765729;
0,00366783364136367;
0,00326335428954826;
0,00276323493154579;
0,00218226985187513;
0,00167054996182739;
0,00136622431314058;
0,00130576063839865;
0,00137147127003936;
0,00134804346763954;
0,00107699073165707;
0,000543583800673622;
-0,000116334502400537;
-0,00072458316048476;
-0,00118434704065572;
-0,00152244936108921;
-0,00184024513570554;
-0,00220794459612306;
-0,0026053181712121;
-0,00294924153667391;
-0,00317776862258865;
-0,00331523397676806;
-0,00345292230448927;
-0,00366309226916659;
-0,00391872199549281;
-0,004093778401436;
-0,00405387359013777;
-0,00376838330013491;
-0,00335502044644316;
-0,00301538525444596;
-0,00290602835912474;
-0,00304040644790208;
-0,00329290963385088;
-0,00349792677202562;
-0,00356466124990755;
-0,0035216492107107;
-0,00346521642086969;
-0,00346340006690845;
-0,003498529978677;
-0,00349315078172101;
-0,00339050036451687;
-0,00321419526672001;
-0,00305115661393953;
-0,00297002122053255;
-0,00294586743945812;
-0,0028609245928853;
-0,00258939496265017;
-0,00210309155352348;
-0,00151283612858242;
-0,00100788060591451;
-0,000734996238846375;
-0,000706570813613665;
-0,00080473226298856;
-0,000874202719461575;
-0,000829829987471034;
-0,000698122804213847;
-0,000568858968484446;
-0,000505246884139016;
-0,000490307441150518;
-0,0004512250079844;
-0,000334548729401772;
-0,000161839330674845;
-1,36443019867214E-5;
4,66544127132196E-5;
4,29415631598802E-5;
8,55694757722239E-5;
0,000292250953225852;
0,000689730463632517;
0,00117541312206334;
0,00157388875967433;
0,00174942933625398;
0,00169131747973488;
0,00150982606990394;
0,00134983223735072;
0,00129097283955812;
0,00130920953897884;
0,00132185063171134;
0,0012709037238373;
0,00117271456933867;
0,00109530365439166;
0,00108867139067772;
0,00113332918330734;
0,00115522383519039;
0,0010962307033112;
0,000978922469439791;
0,000905712283782221;
0,000985677448655693;
0,00124377308641868;
0,00158554303202176;
0,00184943190465787;
0,00191061458668253;
0,00175959518952668;
0,00149834145326791;
0,00126056786923325;
0,00111977160153674;
0,00105394594261804;
0,000987128153833342;
0,000866119300584842;
0,00070607870320891;
0,000569606171622096;
0,000502666784805351;
0,000487363045138488;
0,000455721296628502;
0,000354429512046248;
0,000204210373754918;
9,89339121703565E-5;
0,00013846694945675;
0,000345511934721227;
0,000633403625765643;
0,000854135511369105;
0,000893432898121455;
0,00074258738786614;
0,000494783542368395;
0,000272121619532917;
0,000141579696846829;
8,28694889040404E-5;
2,64722441387783E-5;
-7,63033803686899E-5;
-0,000211769231720645;
-0,000323008905210879;
-0,000368321705859029;
-0,000364219264425619;
-0,000372793465823231;
-0,000442732978607396;
-0,000555323121092106;
-0,000625342765361101;
-0,000562198639008872;
-0,000345503530058851;
-5,42358162292704E-5;
0,000177000838705753;
0,000244345289910971;
0,000139815373140321;
-5,21469017692605E-5;
-0,000220953273112284;
-0,000306058212727352;
-0,000326011716811109;
-0,000343916847442649;
-0,000403962757257383;
-0,000493856149272576;
-0,00056221537244516;
-0,0005714556081898;
-0,000536624096159889;
-0,000513919676535695;
-0,000547380098362515;
-0,000620159082881917;
-0,000655416110675565;
-0,000571530062420295;
-0,000350239367065688;
-6,28363669446641E-5;
0,000169348863880265;
0,000252779559488489;
0,000180302399104993;
2,7929127235402E-5;
-0,000104873118724566;
-0,000163699952732916;
-0,000165257794979523;
-0,000166248195216647;
-0,000206336749996843;
-0,000274461380875738;
-0,000324502688475998;
-0,000322751229403936;
-0,000282699343579542;
-0,000254692679681636;
-0,000278135969384943;
-0,000337890839357049;
-0,000365144786326158;
-0,000286869559850641;
-8,67513110991832E-5;
0,000171472696985345;
0,00037942017435523;
0,000453623039028873;
0,000387792736494198;
0,000249849502237066;
0,000128576256850748;
7,25119558160111E-5;
6,67932633951919E-5;
6,09497582062018E-5;
1,97224795946634E-5;
-4,69756480084925E-5;
-9,80591995079697E-5;
-0,000103515483345655;
-7,53095236672266E-5;
-5,81340135833E-5;
-8,69258273424212E-5;
-0,00014817952786314;
-0,000180784471557684;
-0,000119949452603256;
4,87826879022171E-5;
0,000268925662607363;
0,000444501443429579;
0,000501669409116337;
0,000434943446488153;
0,000304474202991481;
0,000188803012081831;
0,000130842822861943;
0,000117472225121121;
0,000104147791009875;
5,9787130069454E-5;
-6,82634136006514E-6;
-5,94403402606253E-5;
-7,15963140264408E-5;
-5,38344756605531E-5;
-4,5497841777788E-5;
-7,73087009169345E-5;
-0,000137355359527851;
-0,000171888969651114;
-0,0001239800044289;
1,90364539856567E-5;
0,000207530674150583;
0,000357263612470157;
0,00040348662982846;
0,000341428864805373;
0,000223832623427695;
0,000119498072022993;
6,59781532222595E-5;
5,17705300305429E-5;
3,79085639273352E-5;
-2,77342384761362E-6;
-6,2592917271995E-5;
-0,000109894617552126;
-0,000121603013889498;
-0,000106937318823054;
-0,000100217081584486;
-0,000128215597553157;
-0,0001805497655075;
-0,000210430678471792;
-0,000168350685925464;
-4,33440260349365E-5;
0,000121401740746172;
0,000252676818261337;
0,000294263639785312;
0,00024204341490607;
0,00014178041739842;
5,3114417460231E-5;
8,55972952232474E-6;
-1,87151171684725E-6;
-1,19206166136411E-5;
-4,50877486219967E-5;
-9,47281475149767E-5;
-0,000133496091712848;
-0,000141483881624828;
-0,000126672695990544;
-0,000118681202837894;
-0,000140589990170576;
-0,000183445044522714;
-0,00020695818034804;
-0,00016854684195468;
-5,88213445416934E-5;
8,50531668504472E-5;
0,000200162827263843;
0,000238248481949528;
0,000195800877456776;
0,000112086184563523;
3,82199093501595E-5;
2,03588947520267E-6;
-5,03339479693732E-6;
-1,18590251616065E-5;
-3,85248957143163E-5;
-7,93429336205007E-5;
-0,000110961930326849;
-0,000116404944564555;
-0,000102492316287102;
-9,44703962642058E-5;
-0,000111986229214909;
-0,00014740304004235;
-0,000166448210616298;
-0,000132942786246375;
-3,89428668602855E-5;
8,39742143340752E-5;
0,000182431370172255;
0,000215536756217822;
0,000180349058222835;
0,000110133941520104;
4,81391694972398E-5;
1,78853136667804E-5;
1,21248588278276E-5;
6,48783099380082E-6;
-1,5953240146582E-5;
-5,03875605372688E-5;
-7,71398437965319E-5;
-8,19266229548843E-5;
-7,04927848952533E-5;
-6,40548437677316E-5;
-7,90972846155258E-5;
-0,000109192600848173;
-0,00012559587402234;
-9,80084368986977E-5;
-1,98084054044242E-5;
8,25638682461717E-5;
0,000164488748350496;
0,000191834749531585;
0,000162179936904721;
0,000103287014726296;
5,11931599170602E-5;
2,54689050303554E-5;
2,00770573585744E-5;
1,47682425576805E-5;
-4,49794722694556E-6;
-3,37149169917896E-5;
-5,65695560812634E-5;
-6,12404116015314E-5;
-5,24899387265015E-5;
-4,78554894164255E-5;
-6,09369573437307E-5;
-8,64134531991462E-5;
-0,000100584652872208;
-7,8514377394218E-5;
-1,4785261720263E-5;
6,88427912577193E-5;
0,000135724334424317;
0,000157878768135936;
0,000133352137943326;
8,48971083565164E-5;
4,19914142486397E-5;
2,06134814779268E-5;
1,58240541571384E-5;
1,11135356782912E-5;
-4,94097408311509E-6;
-2,90663212924898E-5;
-4,80022102310593E-5;
-5,2161625227099E-5;
-4,54182273478253E-5;
-4,19781829155226E-5;
-5,28320725196746E-5;
-7,36643561227498E-5;
-8,5342575085835E-5;
-6,77827016174379E-5;
-1,66566985182966E-5;
5,05058586919525E-5;
0,000104262942941462;
0,00012218639342772;
0,000102741417270813;
6,41567170977715E-5;
2,99913871729568E-5;
1,29840931055255E-5;
9,18440254264405E-6;
5,45067511095996E-6;
-7,2847119287412E-6;
-2,6410825259925E-5;
-4,1415689242207E-5;
-4,47225457605991E-5;
-3,94060747515032E-5;
-3,66791577774493E-5;
-4,51895249732748E-5;
-6,15259202280228E-5;
-7,06569799286757E-5;
-5,68519841980407E-5;
-1,67586441668243E-5;
3,58873207034808E-5;
7,80996797160148E-5;
9,24234707336269E-5;
7,76982320517713E-5;
4,81029992750499E-5;
2,19019772036849E-5;
8,9374009540905E-6;
6,14346727111697E-6;
3,3880239736502E-6;
-6,29330206177781E-6;
-2,08810961505307E-5;
-3,23156648137768E-5;
-3,48124892321869E-5;
-3,07328083348929E-5;
-2,86211414037448E-5;
-3,50380464858766E-5;
-4,73776979204038E-5;
-5,4258771832883E-5;
-4,3822521688738E-5;
-1,35825681353498E-5;
2,6099671607457E-5;
5,79753772680524E-5;
6,90069236879119E-5;
5,83662080045333E-5;
3,66390158841691E-5;
1,73939532187502E-5;
7,90649514765849E-6;
5,89574242399369E-6;
3,89571421386585E-6;
-3,19581334180437E-6;
-1,38829356262678E-5;
-2,22748045366011E-5;
-2,41706976558522E-5;
-2,13003350487249E-5;
-1,98504573620856E-5;
-2,45386686255368E-5;
-3,34701936380624E-5;
-3,84835485119328E-5;
-3,1133359228704E-5;
-9,69508259146957E-6;
1,84437707504663E-5;
4,10871974861787E-5;
4,90855949881718E-5;
4,1903180478939E-5;
2,69663422086173E-5;
1,37173353952301E-5;
7,17750076484195E-6;
5,75551198531184E-6;
4,3251432519321E-6;
-5,82855954444668E-7;
-7,93201287764173E-6;
-1,37321657393639E-5;
-1,51694961686094E-5;
-1,34204442003276E-5;
-1,26085464978597E-5;
-1,58399568771188E-5;
-2,18421048453745E-5;
-2,52671469545697E-5;
-2,06503772914778E-5;
-6,93156601897113E-6;
1,10969620006048E-5;
2,56454593639227E-5;
3,09527233316529E-5;
2,67373076066894E-5;
1,7674801954259E-5;
9,61695549605457E-6;
5,62486217050688E-6;
4,70657276646589E-6;
3,76817189206406E-6;
7,5761321966265E-7;
-3,6880678603613E-6;
-7,22771529835435E-6;
-8,2498455940274E-6;
-7,45140369503205E-6;
-7,16938385779447E-6;
-9,11578596624365E-6;
-1,25570352365319E-5;
-1,45783993617642E-5;
-1,22907623066747E-5;
-5,20719985559929E-6;
4,12039505774502E-6;
1,17034625902732E-5;
1,47019568350521E-5;
1,30533359933246E-5;
9,0642366251456E-6;
5,49636302621169E-6;
3,72486782621969E-6;
3,27295085863019E-6;
2,79223132641603E-6;
1,44676894196211E-6;
-4,69800232334429E-7;
-2,03076821197761E-6;
-2,65507133696835E-6;
-2,62882408379384E-6;
-2,75985043159318E-6;
-3,56796517432439E-6;
-4,78104543493389E-6;
-5,56365900989148E-6;
-5,22588359876418E-6;
-3,76958691867918E-6;
-1,83553176295349E-6;
-1,72448093132922E-7;
8,67566487129561E-7;
1,40823040470543E-6;
1,74130688532693E-6;
2,00221812647825E-6;
2,13429305828604E-6;
2,09803468950948E-6;
2,02540090954812E-6;
2,11076399498517E-6;
2,35637376384522E-6;
2,49142149569056E-6;
2,22548264071247E-6;
1,61995938576061E-6;
1,15874994016725E-6;
1,32804454004781E-6;
2,01022754444656E-6;
2,28778152644173E-6;
9,98413719833653E-7;
-2,27063322994296E-6;
-6,55220871940263E-6;
-9,87189084190377E-6;
-1,04923378958296E-5;
-8,13347418415299E-6;
-4,19276783423387E-6;
-7,34790986049935E-7;
9,85456153151308E-7;
1,29435283106351E-6;
1,56085990192451E-6;
2,83928529651744E-6;
4,88830282133101E-6;
6,43855292256274E-6;
6,47380466769206E-6;
5,34499408108644E-6;
4,61033314551405E-6;
5,59163324666807E-6;
7,8472310863442E-6;
9,0052358574088E-6;
6,36840252881048E-6;
-8,15756189507372E-7;
-1,02492382767289E-5;
-1,77063520815286E-5;
-1,97241442119021E-5;
-1,58934899198215E-5;
-9,00407560965296E-6;
-2,93181563706689E-6;
8,27555190267116E-8;
6,66793954102831E-7;
1,20465566801452E-6;
3,45551265336923E-6;
6,97797847199529E-6;
9,6851118408666E-6;
9,96731039069707E-6;
8,41229519632481E-6;
7,45502374010641E-6;
9,09818774315501E-6;
1,26357165520336E-5;
1,45122766076009E-5;
1,0783444368657E-5;
4,21491736540465E-7;
-1,31959303602971E-5;
-2,40194792176247E-5;
-2,71901652781463E-5;
-2,2194621014164E-5;
-1,29460423409327E-5;
-4,78018887304362E-6;
-7,30776780555543E-7;
7,12768335237084E-8;
8,25502033289106E-7;
3,85588347502822E-6;
8,56026191392299E-6;
1,2197403363411E-5;
1,26837558199216E-5;
1,07962287457423E-5;
9,66843578917917E-6;
1,18445229162481E-5;
1,64077241556728E-5;
1,88631674687329E-5;
1,42781908917985E-5;
1,4078144732261E-6;
-1,55165337586905E-5;
-2,9006232441736E-5;
-3,31024013311116E-5;
-2,7209773845335E-5;
-1,61239488678186E-5;
-6,32519548560197E-6;
-1,46790554845698E-6;
-4,9382708611624E-7;
4,32354210532818E-7;
4,07401588081283E-6;
9,70341804860101E-6;
1,40711797229327E-5;
1,47266385616307E-5;
1,25933296768877E-5;
1,13443361256001E-5;
1,39406970046825E-5;
1,93029387958317E-5;
2,22144229053603E-5;
1,69853607193092E-5;
2,20526704255577E-6;
-1,7242041088796E-5;
-3,27712282924685E-5;
-3,75873986796998E-5;
-3,10333650926359E-5;
-1,8572577466979E-5;
-7,54930695900686E-6;
-2,08520973340435E-6;
-9,79719132637735E-7;
7,89201451384771E-8;
4,18213349741465E-6;
1,05078662043454E-5;
1,54283002566791E-5;
1,62204382031713E-5;
1,39167151589877E-5;
1,25886415766048E-5;
1,55038352178361E-5;
2,14626312145989E-5;
2,47193852942307E-5;
1,90316579202402E-5;
2,8692598393886E-6;
-1,84095526090354E-5;
-3,54253625865726E-5;
-4,07803084472188E-5;
-3,37729839058901E-5;
-2,03454967356006E-5;
-8,45881986565851E-6;
-2,56665807766032E-6;
-1,36736412837412E-6;
-2,12994806148205E-7;
4,2179685589614E-6;
1,10366906699283E-5;
1,63509682481E-5;
1,7248777201777E-5;
1,48383410334042E-5;
1,34657670018696E-5;
1,66084549045659E-5;
2,29838634918229E-5;
2,64863704379432E-5;
2,05001132032334E-5;
3,41536745768283E-6;
-1,90909352568474E-5;
-3,71101293929586E-5;
-4,28452674144586E-5;
-3,55662966393762E-5;
-2,15287667747391E-5;
-9,09442751784407E-6;
-2,93100754537591E-6;
-1,67171507615223E-6;
-4,54673083507535E-7;
4,18639244947358E-6;
1,13198618737452E-5;
1,68884583511846E-5;
1,78636300135746E-5;
1,54005862640921E-5;
1,40124151728148E-5;
1,73022088778531E-5;
2,39369509207015E-5;
2,75977635196436E-5;
2,14508604436918E-5;
3,84184916403658E-6;
-1,93685998901596E-5;
-3,79719358833748E-5;
-4,39486584867014E-5;
-3,65536328780109E-5;
-2,22131038903835E-5;
-9,50307848338002E-6;
-3,20338330405767E-6;
-1,91306258626987E-6;
-6,61719814505018E-7;
4,08812580400068E-6;
1,13827613565514E-5;
1,70853520468506E-5;
1,81132138528373E-5;
1,56437984053056E-5;
1,4264660424292E-5;
1,76323432920212E-5;
2,43911922716608E-5;
2,81349830437604E-5;
2,19454045080949E-5;
4,15332357611839E-6;
-1,93124051521623E-5;
-3,81396866936072E-5;
-4,42375646562503E-5;
-3,68575246576188E-5;
-2,24746302236714E-5;
-9,71993445480059E-6;
-3,3983816342072E-6;
-2,10124057094728E-6;
-8,39392063887168E-7;
3,93324832300591E-6;
1,12584866936698E-5;
1,69926733805513E-5;
1,80520427773348E-5;
1,56152675181552E-5;
1,42658568158715E-5;
1,76525386881852E-5;
2,44206116545317E-5;
2,81831878672555E-5;
2,20503970223377E-5;
4,36373197514824E-6;
-1,89774151837798E-5;
-3,77232822820106E-5;
-4,38390618794077E-5;
-3,65828299751263E-5;
-2,23758355338056E-5;
-9,7701220810654E-6;
-3,52254873239575E-6;
-2,23876041854491E-6;
-9,86330666328668E-7;
3,73687916388769E-6;
1,09829867263462E-5;
1,66625231959283E-5;
1,7735095958852E-5;
1,5363022916335E-5;
1,40601011360918E-5;
1,74160364364065E-5;
2,40967981998316E-5;
2,78238783158482E-5;
2,18300715681815E-5;
4,48868112875976E-6;
-1,84116102430017E-5;
-3,68213396259999E-5;
-4,28679494127984E-5;
-3,58244786294034E-5;
-2,19733157735681E-5;
-9,67644557585693E-6;
-3,58201741784397E-6;
-2,32833874290298E-6;
-1,10197350150175E-6;
3,51190735233651E-6;
1,05879549652703E-5;
1,61411599359936E-5;
1,7211113077794E-5;
1,49293344352017E-5;
1,36859559031362E-5;
1,69696209411158E-5;
2,34831494513359E-5;
2,71294027445094E-5;
2,1341013083653E-5;
4,54047131590268E-6;
-1,76605888518605E-5;
-3,55256152650467E-5;
-4,14308625153142E-5;
-3,46712486428124E-5;
-2,13212079994881E-5;
-9,46247418182786E-6;
-3,58527629487927E-6;
-2,37537793950889E-6;
-1,1887382445299E-6;
3,26711481058261E-6;
1,00992427348429E-5;
1,5467685878666E-5;
1,65215428112763E-5;
1,43499119343749E-5;
1,31758895595703E-5;
1,63533015958773E-5;
2,2634799806959E-5;
2,6163109325934E-5;
2,06324911855127E-5;
4,52855037487372E-6;
-1,67670375167538E-5;
-3,392037812217E-5;
-3,9625496214486E-5;
-3,32047833573689E-5;
-2,0469974557209E-5;
-9,15112432540367E-6;
-3,54160245316417E-6;
-2,38628031771482E-6;
-1,25023627653268E-6;
3,00906083329292E-6;
9,53887203978219E-6;
1,4676163277641E-5;
1,57026995034474E-5;
1,36560756016912E-5;
1,255845946365E-5;
1,56025298318946E-5;
2,16008928603366E-5;
2,49816507841277E-5;
1,97486998885894E-5;
4,46160090088951E-6;
-1,57688252763542E-5;
-3,20806656620364E-5;
-3,75389290173245E-5;
-3,14978768377432E-5;
-1,94646045024723E-5;
-8,76280620041691E-6;
-3,45920672097902E-6;
-2,36664048535813E-6;
-1,28951916272749E-6;
2,74381364287961E-6;
8,92673824351874E-6;
1,37972777467025E-5;
1,47873557270366E-5;
1,28762390712471E-5;
1,18597018632869E-5;
1,47495331845025E-5;
2,04258881596462E-5;
2,36362247134968E-5;
1,87298487498839E-5;
4,34838391059712E-6;
-1,46984737908172E-5;
-3,00720029528785E-5;
-3,52474521231255E-5;
-2,96142950303537E-5;
-1,83443598910567E-5;
-8,31510151097532E-6;
-3,34491743144079E-6;
-2,3209902210214E-6;
-1,30888390741011E-6;
2,47712332562447E-6;
8,28080203124468E-6;
1,28585279299982E-5;
1,38048882092472E-5;
1,20359636169327E-5;
1,11031004625612E-5;
1,38232762124168E-5;
1,91495337531803E-5;
2,21725371672266E-5;
1,76120221303469E-5;
4,19734318494823E-6;
-1,35838395953303E-5;
-2,79513104846902E-5;
-3,28175756221915E-5;
-2,76096991486772E-5;
-1,71435344721476E-5;
-7,82338552313646E-6;
-3,20473393918799E-6;
-2,25335122322747E-6;
-1,31041543565463E-6;
2,21392853629193E-6;
7,6166757620245E-6;
1,18838794084263E-5;
1,27809160217279E-5;
1,11575689881562E-5;
1,03091959330877E-5;
1,2849090537035E-5;
1,78065941902996E-5;
2,06305847404972E-5;
1,64268682581605E-5;
4,01610058555194E-6;
-1,24488984235784E-5;
-2,57679121347489E-5;
-3,0307061581519E-5;
-2,55325524436753E-5;
-1,58921458625664E-5;
-7,30133155895918E-6;
-3,04423773983918E-6;
-2,16759796018559E-6;
-1,29631434123076E-6;
1,9581158003448E-6;
6,9474931502763E-6;
1,08937106220071E-5;
1,17373016372122E-5;
1,02601145397745E-5;
9,49554453894371E-6;
1,18487139932982E-5;
1,64269856317336E-5;
1,90448456224149E-5;
1,52017380041757E-5;
3,81135808858521E-6;
-1,13141348813918E-5;
-2,35641367546509E-5;
-2,77655840228118E-5;
-2,34246484991852E-5;
-1,46162462066972E-5;
-6,76102091480922E-6;
-2,86858794182793E-6;
-2,06742296567231E-6;
-1,26882740297237E-6;
1,71265496867855E-6;
6,28416045506742E-6;
9,90516464607455E-6;
1,06924963986141E-5;
9,35971588957886E-6;
8,6770408295602E-6;
1,08406482359708E-5;
1,50362228301603E-5;
1,74447781312091E-5;
1,39600882282332E-5;
3,58906296806158E-6;
-1,0196696658709E-5;
-2,13757274652892E-5;
-2,52352104726698E-5;
-2,13214722398172E-5;
-1,33380586988616E-5;
-6,21289476267494E-6;
-2,68238416326137E-6;
-1,95618919797911E-6;
-1,23008747447302E-6;
1,47984061665767E-6;
5,63568706142348E-6;
8,93254699713704E-6;
9,66196630501094E-6;
8,46991883478219E-6;
7,86624271854983E-6;
9,84052983524729E-6;
1,36558877844196E-5;
1,58553314677199E-5;
1,2721888388709E-5;
3,35454822772659E-6;
-9,11059505519735E-6;
-1,92323090756128E-5;
-2,27509391000338E-5;
-1,92526238766277E-5;
-1,20762019740554E-5;
-5,66579972881805E-6;
-2,48962644044176E-6;
-1,83686221328604E-6;
-1,18203584848512E-6;
1,26141355923869E-6;
5,00941566198162E-6;
7,9876254227745E-6;
8,65848034892193E-6;
7,6019515642124E-6;
7,0736063450496E-6;
8,86139923512486E-6;
1,23039696119182E-5;
1,42973255817053E-5;
1,15039087266989E-5;
3,11256286007918E-6;
-8,06700258332435E-6;
-1,71579447262193E-5;
-2,03413451769596E-5;
-1,72423597161836E-5;
-1,08460210240185E-5;
-5,12713041823287E-6;
-2,29376835019569E-6;
-1,71206369453891E-6;
-1,12645044009349E-6;
1,05860780333845E-6;
4,41115523834473E-6;
7,07984579456268E-6;
7,69233972917027E-6;
6,76491176741858E-6;
6,30764376893481E-6;
7,91389563981594E-6;
1,09951614055805E-5;
1,27877926028482E-5;
1,03199624577344E-5;
2,8672621688393E-6;
-7,07459874058774E-6;
-1,51717443799877E-5;
-1,80292576304739E-5;
-1,53101481660314E-5;
-9,65992874521592E-6;
-4,60299304907774E-6;
-2,09778975631794E-6;
-1,58410820635374E-6;
-1,06497671991453E-6;
8,72185134299857E-7;
3,84532564534663E-6;
6,21654247478431E-6;
6,77160543890588E-6;
5,96594862521311E-6;
5,57508617616729E-6;
7,00647769569289E-6;
9,74115330219709E-6;
1,1340319387668E-5;
9,18116569270888E-6;
2,62221791027479E-6;
-6,1398637395478E-6;
-1,32883990951973E-5;
-1,58323741504192E-5;
-1,34711769844805E-5;
-8,52771563026979E-6;
-4,0983378855133E-6;
-1,90424222790722E-6;
-1,45503853550836E-6;
-9,99129346199737E-7;
7,02495185222109E-7;
3,31511003855488E-6;
5,40317610635938E-6;
5,90234077959984E-6;
5,21048372470599E-6;
4,88107951892508E-6;
6,14564723502879E-6;
8,55096019230943E-6;
9,96541337459684E-6;
8,09621322930355E-6;
2,38046860001267E-6;
-5,26735037846357E-6;
-1,15186976765767E-5;
-1,37638354413114E-5;
-1,17368258614746E-5;
-7,45682994733317E-6;
-3,61706749199575E-6;
-1,71526571906985E-6;
-1,32661832179257E-6;
-9,30284665428196E-7;
5,49545180687368E-7;
2,82262152242444E-6;
4,64356451176273E-6;
5,08885798946047E-6;
4,50241847617002E-6;
4,22937534535228E-6;
5,33618181210424E-6;
7,43122574239938E-6;
8,67086386177757E-6;
7,07165792806618E-6;
2,14456529392443E-6;
-4,45991153753801E-6;
-9,86998857404035E-6;
-1,18327735578511E-5;
-1,01151159019651E-5;
-6,45264137422455E-6;
-3,16213520939594E-6;
-1,53261711605969E-6;
-1,20035297447747E-6;
-8,59673815178098E-7;
4,13065416247387E-7;
2,36905757279744E-6;
3,94011502159652E-6;
4,33395308013781E-6;
3,84432770150641E-6;
3,62250950592384E-6;
4,58136073156828E-6;
6,38652216674352E-6;
7,46206451948462E-6;
6,11216423626858E-6;
1,91661734658653E-6;
-3,71894878187576E-6;
-8,34663814843688E-6;
-1,00448268568019E-5;
-8,6111339056727E-6;
-5,51869444402155E-6;
-2,73566242746107E-6;
-1,35771228235573E-6;
-1,07750491407158E-6;
-7,88383510858644E-7;
2,92564581710384E-7;
1,95482910222944E-6;
3,29400035515855E-6;
3,63910153100414E-6;
3,23764190795149E-6;
3,06195898011768E-6;
3,88314674765581E-6;
5,41961568122438E-6;
6,34233095665222E-6;
5,22074229085599E-6;
1,69832508772068E-6;
-3,04462451756923E-6;
-6,95045565368877E-6;
-8,40263337427294E-6;
-7,22744059877308E-6;
-4,65696036807169E-6;
-2,3390369655034E-6;
-1,19164767158989E-6;
-9,59109174296215E-7;
-7,17364611260941E-7;
1,87368523534813E-7;
1,57968642022823E-6;
2,70535948508643E-6;
3,00466233465085E-6;
2,68281149247348E-6;
2,54829316658105E-6;
3,24237719012522E-6;
4,53171861504056E-6;
5,31318021849016E-6;
4,39896686214648E-6;
1,49101552486379E-6;
-2,43607345500354E-6;
-5,68109011332872E-6;
-6,9062806665404E-6;
-5,96444319239526E-6;
-3,86806207050797E-6;
-1,97301467962984E-6;
-1,03524214705772E-6;
-8,45997631168845E-7;
-6,47440518360147E-7;
9,66633188167485E-8;
1,24282878185728E-6;
2,17345650956389E-6;
2,43005005686813E-6;
2,17945573826989E-6;
2,08131086927543E-6;
2,65892627811675E-6;
3,72271603690795E-6;
4,37460059016056E-6;
3,64718633227287E-6;
1,29568478309758E-6;
-1,89158131667287E-6;
-4,53639120945997E-6;
-5,55372532234933E-6;
-4,82074442125652E-6;
-3,15148599016957E-6;
-1,63780807381991E-6;
-8,89070516735132E-7;
-7,38821526996379E-7;
-5,7931337385456E-7;
1,95269375613882E-8;
9,43008434915222E-7;
1,69683540895354E-6;
1,91389233252801E-6;
1,72650655385653E-6;
1,66016926080553E-6;
2,13187233749236E-6;
2,99139266261961E-6;
3,52529907133834E-6;
2,96471713032724E-6;
1,11302914570353E-6;
-1,40875243265547E-6;
-3,5127246691462E-6;
-4,34116537994336E-6;
-3,7934528434232E-6;
-2,50576652298011E-6;
-1,33316916893247E-6;
-7,53488376046814E-7;
-6,38063700926725E-7;
-5,13569294511205E-7;
-4,50281855407904E-8;
6,78624086810856E-7;
1,27346238126868E-6;
1,45418796900633E-6;
1,32233523190933E-6;
1,28350163763762E-6;
1,6596333548272E-6;
2,33561883281705E-6;
2,76292456162264E-6;
2,35001357183385E-6;
9,43481709800728E-7;
-9,8466099061213E-7;
-2,60527943041853E-6;
-3,26338432634188E-6;
-2,87846774095787E-6;
-1,92866437750591E-6;
-1,05846683457724E-6;
-6,28660731763842E-7;
-5,44052429390479E-7;
-4,50685074729831E-7;
-9,80318424934982E-8;
4,47806684307583E-7;
9,00850000488658E-7;
1,04843806222993E-6;
9,64870754129158E-7;
9,49519227569993E-7;
1,2400973206473E-6;
1,75253297723525E-6;
2,08427307621039E-6;
1,80082919598669E-6;
7,87251572333899E-7;
-6,15974226299531E-7;
-1,80833018682724E-6;
-2,31405710364386E-6;
-2,07073076262828E-6;
-1,41732731485863E-6;
-8,12754055592331E-7;
-5,14584864967007E-7;
-4,56990963243665E-7;
-3,91041490380733E-7;
-1,40536597658814E-7;
2,48483296517577E-7;
5,76169158945233E-7;
6,93758378833151E-7;
6,51699126013322E-7;
6,56111595550271E-7;
8,70741468426666E-7;
1,23870200993179E-6;
1,4854735342936E-6;
1,31436488443979E-6;
6,44343350606683E-7;
-2,9908128030277E-7;
-1,11546263473559E-6;
-1,48602494324179E-6;
-1,36446300293058E-6;
-9,68422424927797E-7;
-5,94834264430743E-7;
-4,11122626982694E-7;
-3,76962589255439E-7;
-3,34923479845017E-7;
-1,73584921473281E-7;
7,84556206159138E-8;
2,96347427563075E-7;
3,86988126853448E-7;
3,80152796263679E-7;
4,00922055849568E-7;
5,48732538048415E-7;
7,90259400988958E-7;
9,62143012186777E-7;
8,8738708417406E-7;
5,14594208104607E-7;
-3,01871754930527E-8;
-5,19790959475393E-7;
-7,71531417366505E-7;
-7,53357008983622E-7;
-5,78263311552594E-7;
-4,03313792759327E-7;
-3,1801800855468E-7;
-3,03948129531861E-7;
-2,82538154466228E-7;
-1,98211959695E-7;
-6,45601624467467E-8;
5,81522073987658E-8;
1,24783128525731E-7;
1,47395869515897E-7;
1,81425525858969E-7;
2,71016521714E-7;
4,03030962189121E-7;
5,09537183312151E-7;
5,16349953238335E-7;
3,97699877225269E-7;
1,94602289697602E-7;
-1,41288805643384E-8;
-1,62438051490808E-7;
-2,3076111919872E-7;
-2,42925607313874E-7;
-2,36655326227644E-7;
-2,34918152722958E-7;
-2,37847987217425E-7;
-2,34016174692442E-7;
-2,15407537745342E-7;
-1,82873205543359E-7;
-1,41735115435499E-7;
-9,63066644491259E-8;
-4,95097127134844E-8;
-5,00782149021465E-9;
3,44023870185721E-8;
7,26463043555008E-8;
1,22673343919348E-7;
1,9749368861246E-7;
2,93236815958136E-7;
3,79196004359698E-7;
4,08851670979034E-7;
3,49600556636304E-7;
2,10174065645235E-7;
4,16641666385991E-8;
-9,32217351741055E-8;
-1,61393927969997E-7;
-1,78487038171683E-7;
-1,89423155769119E-7;
-2,26128588962047E-7;
-2,78786785014656E-7;
-3,06649097674011E-7;
-2,7977113166266E-7;
-2,13545971352003E-7;
-1,61056495603593E-7;
-1,64378428555301E-7;
-2,05371634590645E-7;
-2,03558096779067E-7;
-7,30713891636439E-8;
2,00687968117927E-7;
5,27467521380685E-7;
7,56492641668541E-7;
7,72977558906918E-7;
5,76363238672226E-7;
2,79648204723546E-7;
2,86872153137449E-8;
-9,69565013892148E-8;
-1,25630403310145E-7;
-1,4876566628614E-7;
-2,3127216521891E-7;
-3,5455953375002E-7;
-4,39900412086891E-7;
-4,2907943958601E-7;
-3,47687091171058E-7;
-2,89407360408217E-7;
-3,28601384125217E-7;
-4,35519368637373E-7;
-4,7430676135301E-7;
-2,99287764256296E-7;
1,19457110363684E-7;
6,43190972854798E-7;
1,03603931115859E-6;
1,11600491576593E-6;
8,74673449076168E-7;
4,75162730292343E-7;
1,30800604881816E-7;
-4,10696626334703E-8;
-7,89967393618141E-8;
-1,12005072534541E-7;
-2,31682508219169E-7;
-4,12383081918017E-7;
-5,44719946424124E-7;
-5,47633498435651E-7;
-4,54858825011272E-7;
-3,92704846768809E-7;
-4,61511585801485E-7;
-6,22254944550148E-7;
-6,94674500442863E-7;
-4,85087981863986E-7;
4,88968302214176E-8;
7,30011059299816E-7;
1,25454562049364E-6;
1,38680949323969E-6;
1,11183819794438E-6;
6,32279949203692E-7;
2,14844474049964E-7;
6,82837881383509E-9;
-3,82631393647361E-8;
-7,90494984344487E-8;
-2,28138378547603E-7;
-4,54354899701917E-7;
-6,24228364975621E-7;
-6,38728839726465E-7;
-5,37896647913418E-7;
-4,73527695451178E-7;
-5,66272551519273E-7;
-7,69927264667991E-7;
-8,6965902225934E-7;
-6,34339845272803E-7;
-1,1681636862732E-8;
7,91403468024501E-7;
1,41880891954685E-6;
1,59323772960297E-6;
1,29437509337201E-6;
7,54963228122052E-7;
2,82525515449492E-7;
4,73247044611093E-8;
-3,08526787506174E-9;
-4,97844845972006E-8;
-2,21356964945906E-7;
-4,82466894755738E-7;
-6,81410745810143E-7;
-7,0552664942994E-7;
-5,99531598566923E-7;
-5,34361605718895E-7;
-6,45943779482654E-7;
-8,82746686918191E-7;
-1,00409313984386E-6;
-7,50804862293011E-7;
-6,29934056593685E-8;
8,30653501554404E-7;
1,53530773789748E-6;
1,74279509313879E-6;
1,42853198221749E-6;
8,47027110377304E-7;
3,35503663189606E-7;
8,10101138425673E-8;
2,69090098213785E-8;
-2,40556963111346E-8;
-2,11986829116692E-7;
-4,98590676927044E-7;
-7,19090809910105E-7;
-7,51022605056548E-7;
-6,42359527295167E-7;
-5,77576803548734E-7;
-7,03442992591768E-7;
-9,6473639493807E-7;
-1,10260697303656E-6;
-8,38099024775814E-7;
-1,05766316763969E-7;
8,50832782598041E-7;
1,61015921448338E-6;
1,8425882766291E-6;
1,52024118267553E-6;
9,12106849061281E-7;
3,75380735873031E-7;
1,08477421406557E-7;
5,20974808037217E-8;
-1,68829714940954E-9;
-2,00612241999359E-7;
-5,04466320047908E-7;
-7,39913380874543E-7;
-7,78040173823271E-7;
-6,68824309621805E-7;
-6,05411495633926E-7;
-7,41539925624145E-7;
-1,01970790424422E-6;
-1,16959384078548E-6;
-8,99671721785453E-7;
-1,407247164395E-7;
8,5479810220929E-7;
1,64908982133328E-6;
1,89928657588228E-6;
1,57507907540188E-6;
9,5363478179186E-7;
4,03686353881308E-7;
1,30310873772853E-7;
7,28668371020624E-8;
1,75074520542846E-8;
-1,87755204694584E-7;
-5,01705977077835E-7;
-7,46345097951794E-7;
-7,89206520333071E-7;
-6,81210913598106E-7;
-6,19963285720618E-7;
-7,62828589232781E-7;
-1,05124526809295E-6;
-1,20918515510368E-6;
-9,38776001711035E-7;
-1,68591211325825E-7;
8,45170380733141E-7;
1,65741400632937E-6;
1,91909924214113E-6;
1,59825004179731E-6;
9,74822997849932E-7;
4,21864706719697E-7;
1,4708056006836E-7;
8,96039976722229E-8;
3,37387787088552E-8;
-1,73873268235354E-7;
-4,91781050207281E-7;
-7,40655501948018E-7;
-7,86955543741055E-7;
-6,81636468032502E-7;
-6,23180629575078E-7;
-7,69725885075951E-7;
-1,06268363219059E-6;
-1,22523519227323E-6;
-9,58462653092932E-7;
-1,90068251507105E-7;
8,24351622152397E-7;
1,64002907796827E-6;
1,90775738974135E-6;
1,59457050691928E-6;
9,78660332398095E-7;
4,31275343964167E-7;
1,59334319527803E-7;
1,02689075254772E-7;
4,72212815052961E-8;
-1,59366322927786E-7;
-4,76029719671097E-7;
-7,24919857769885E-7;
-7,73514332558402E-7;
-6,72045999204181E-7;
-6,16859290697567E-7;
-7,64465336171119E-7;
-1,05711105040898E-6;
-1,22131091757387E-6;
-9,61563645176151E-7;
-2,05837949531245E-7;
7,94505236009472E-7;
1,60140103496112E-6;
1,8705114041005E-6;
1,56845860125141E-6;
9,67893373424834E-7;
4,33178934537965E-7;
1,6759869822576E-7;
1,12493800994395E-7;
5,81712477365768E-8;
-1,44578551237009E-7;
-4,55657494050247E-7;
-7,01024589751788E-7;
-7,50913806238775E-7;
-6,5421641042081E-7;
-6,02642683786715E-7;
-7,49089592365909E-7;
-1,03735410620174E-6;
-1,20068910592227E-6;
-9,50690369387975E-7;
-2,16550780048866E-7;
7,57578326736664E-7;
1,54557985868414E-6;
1,81212969042398E-6;
1,52393827299396E-6;
9,45038020790795E-7;
4,28745356926494E-7;
1,72374172277899E-7;
1,19378026024231E-7;
6,68105124491894E-8;
-1,29800185718741E-7;
-4,31737374578577E-7;
-6,70664794941524E-7;
-7,20986711012173E-7;
-6,29750738025973E-7;
-5,82017535843635E-7;
-7,25457541435648E-7;
-1,00598788921645E-6;
-1,16635263365332E-6;
-9,2823371228719E-7;
-2,22830180079987E-7;
7,1530371775902E-7;
1,47620301018768E-6;
1,73691136437893E-6;
1,4646484522654E-6;
9,12373190412459E-7;
4,19042214128519E-7;
1,74128132435695E-7;
1,2368530029159E-7;
7,33582352374983E-8;
-1,15274867201966E-7;
-4,05220796477408E-7;
-6,35351253779248E-7;
-6,85369618096562E-7;
-6,00089514729933E-7;
-5,5632476255984E-7;
-6,95246182601786E-7;
-9,65335928428148E-7;
-1,12099905163191E-6;
-8,96359112335638E-7;
-2,25256105994814E-7;
6,69203253181493E-7;
1,3965099469351E-6;
1,64869877407164E-6;
1,39384581929713E-6;
8,71953464725868E-7;
4,05043832108133E-7;
1,73297668493322E-7;
1,25742767350552E-7;
7,80289508554017E-8;
-1,0120296950406E-7;
-3,76940623617453E-7;
-5,96423346457464E-7;
-6,45520044247774E-7;
-5,66512792958166E-7;
-5,26758698412829E-7;
-6,59954029355391E-7;
-9,17479362449877E-7;
-1,06704874749217E-6;
-8,57025212318708E-7;
-2,243819346809E-7;
6,20608532711251E-7;
1,30936371248719E-6;
1,55089550297355E-6;
1,31442478277066E-6;
8,25608718594937E-7;
3,87628008283801E-7;
1,70287993150755E-7;
1,25857089986324E-7;
8,10333029259434E-8;
-8,77389220437336E-8;
-3,4761849662184E-7;
-5,55050742991119E-7;
-6,02712659723575E-7;
-5,30149917801876E-7;
-4,94376765318234E-7;
-6,20908755724313E-7;
-8,64264528298102E-7;
-1,00665329013184E-6;
-8,11974743480847E-7;
-2,20711154657877E-7;
5,7066641780512E-7;
1,21726476275312E-6;
1,44649005994859E-6;
1,22893248949579E-6;
7,74957789986113E-7;
3,67581090312877E-7;
1,65472983446594E-7;
1,2431581659468E-7;
8,25656509387291E-8;
-7,50106115124585E-8;
-3,17871641045973E-7;
-5,12251832152343E-7;
-5,58064399757047E-7;
-4,91986324529005E-7;
-4,60106176549829E-7;
-5,7927843671434E-7;
-8,07316076959447E-7;
-9,41706853284635E-7;
-7,62754552946302E-7;
-2,14715029675275E-7;
5,20356646510771E-7;
1,12237745288901E-6;
1,33807774095826E-6;
1,13959393828479E-6;
7,21420665061256E-7;
3,45598385110151E-7;
1,59190687882164E-7;
1,21385735081562E-7;
8,28235301932563E-8;
-6,31028155776198E-8;
-2,88220955134999E-7;
-4,68889549984864E-7;
-5,1252763229679E-7;
-4,52871470624946E-7;
-4,24747541298594E-7;
-5,36080055158076E-7;
-7,4805065900194E-7;
-8,73866054359654E-7;
-7,10722965703359E-7;
-2,06818688009981E-7;
4,70499123622834E-7;
1,02655135488337E-6;
1,22789025161391E-6;
1,04832111212372E-6;
6,6622877936552E-7;
3,22297823949444E-7;
1,51750047218082E-7;
1,173091444243E-7;
8,19809771890964E-8;
-5,20816207125134E-8;
-2,59103555823049E-7;
-4,25704981537763E-7;
-4,66919585507463E-7;
-4,13532237985316E-7;
-3,88991892242601E-7;
-4,92186466389807E-7;
-6,87688208131611E-7;
-8,04559732087109E-7;
-6,57057215990352E-7;
-1,97414088012692E-7;
4,2177332833932E-7;
9,31350606294508E-7;
1,11782049456789E-6;
9,56749662149414E-7;
6,10439165393162E-7;
2,9821096144705E-7;
1,43426398412388E-7;
1,12313813135009E-7;
8,02111084236935E-8;
-4,19821102705553E-8;
-2,3086994594477E-7;
-3,83305157939775E-7;
-4,21920767319452E-7;
-3,74578199040963E-7;
-3,53417982417528E-7;
-4,48340814813227E-7;
-6,27267937470372E-7;
-7,35005641897206E-7;
-6,02771868340495E-7;
-1,86848957905281E-7;
3,7472991882594E-7;
8,38068173274992E-7;
1,00944940810793E-6;
8,6624866260219E-7;
5,54944131510563E-7;
2,73798524522942E-7;
1,3446490238232E-7;
1,06599395138333E-7;
7,76664219203479E-8;
-3,28216555157896E-8;
-2,03803197725403E-7;
-3,4219117024987E-7;
-3,78092404058228E-7;
-3,3651488148598E-7;
-3,18511933820941E-7;
-4,0516268124346E-7;
-5,67660718942355E-7;
-6,66232767270234E-7;
-5,48727252097235E-7;
-1,75438522109962E-7;
3,29800341139776E-7;
7,47761911341288E-7;
9,04077757390329E-7;
7,77953116455371E-7;
5,00489901573584E-7;
2,4945239230324E-7;
1,25082115186837E-7;
1,00347422612265E-7;
7,44943291396635E-8;
-2,45959112586067E-8;
-1,7812159490943E-7;
-3,02760223354327E-7;
-3,35885905895667E-7;
-2,99754034284035E-7;
-2,84671665483128E-7;
-3,63163326152627E-7;
-5,0958520489569E-7;
-5,99092339261336E-7;
-4,95643525768089E-7;
-1,6345664597607E-7;
2,87315634353946E-7;
6,61269408481793E-7;
8,02748790307502E-7;
6,92778025017898E-7;
4,47685283005151E-7;
2,25503160032084E-7;
1,15470037246625E-7;
9,37203637560316E-8;
7,08243322713079E-8;
-1,72892370059443E-8;
-1,53987000895858E-7;
-2,6532146988054E-7;
-2,95655084758347E-7;
-2,64617372946176E-7;
-2,52211501653875E-7;
-3,22755158836164E-7;
-4,53622725344461E-7;
-5,342705996355E-7;
-4,44108658598326E-7;
-1,51147783629799E-7;
2,47512663663559E-7;
5,79236512817465E-7;
7,06276230102125E-7;
6,11446312331803E-7;
3,97019030157702E-7;
2,02220011877587E-7;
1,05788183051293E-7;
8,68600635438089E-8;
6,67761484795894E-8;
-1,08728357706924E-8;
-1,31506649552745E-7;
-2,3010165671404E-7;
-2,5767045686969E-7;
-2,31353285684897E-7;
-2,21377073314758E-7;
-2,84260895298219E-7;
-4,00231397952836E-7;
-4,7231655214879E-7;
-3,94598730902798E-7;
-1,3872058508295E-7;
2,10550711387542E-7;
5,02136449256371E-7;
6,1527132811847E-7;
5,34509035886662E-7;
3,48868349229944E-7;
1,798206787889E-7;
9,61788112225611E-8;
7,98912872518762E-8;
6,24565266607674E-8;
-5,3067785557907E-9;
-1,10749940228321E-7;
-1,97256972865577E-7;
-2,22118233742714E-7;
-2,00141429304304E-7;
-1,92350556010668E-7;
-2,47921029964178E-7;
-3,49756682608391E-7;
-4,13645867669779E-7;
-3,47482367561858E-7;
-1,26357021773112E-7;
1,76518891236591E-7;
4,30295985646245E-7;
5,30166040782278E-7;
4,62360893108546E-7;
3,03515170762229E-7;
1,58478538064524E-7;
8,67580333763912E-8;
7,29211368998479E-8;
5,7961117477842E-8;
-5,44802842459293E-10;
-9,17470976698366E-8;
-1,66886775652289E-7;
-1,89124443365214E-7;
-1,71101307569211E-7;
-1,65258583590116E-7;
-2,13909521615599E-7;
-3,02447220312911E-7;
-3,58562139395968E-7;
-3,03037829296519E-7;
-1,14209529314488E-7;
1,45445011523572E-7;
3,63906021602404E-7;
4,51236069761707E-7;
3,95266935051375E-7;
2,61156885755113E-7;
1,38321516484343E-7;
7,7623374499305E-8;
6,60432237947116E-8;
5,33724949528281E-8;
3,4667358629775E-9;
-7,4494872587663E-8;
-1,39033264883982E-7;
-1,58753724330361E-7;
-1,44305119794753E-7;
-1,40179018803454E-7;
-1,82336902041112E-7;
-2,58466611394456E-7;
-3,07267085254549E-7;
-2,61459752668317E-7;
-1,02402757288162E-7;
1,17312604200807E-7;
3,03049214339362E-7;
3,78622204672553E-7;
3,33373885158971E-7;
2,21912903868242E-7;
1,19444078282309E-7;
6,8852356397993E-8;
5,93312659094172E-8;
4,87642378162694E-8;
6,77889157178672E-9;
-5,89677641479871E-8;
-1,13694612334251E-7;
-1,31023467468782E-7;
-1,19775890184387E-7;
-1,17146475283279E-7;
-1,53260464875443E-7;
-2,17907008128033E-7;
-2,59881530137518E-7;
-2,22872676465811E-7;
-9,10435625869006E-8;
9,20589576236539E-8;
2,47715352516667E-7;
3,12349207163775E-7;
2,76728515649466E-7;
1,8584204043795E-7;
1,01904936046535E-7;
6,05077840581528E-8;
5,28501405822353E-8;
4,419774947911E-8;
9,45559586722289E-9;
-4,51136171997414E-8;
-9,08364083415947E-8;
-1,05908031180002E-7;
-9,7500345385379E-8;
-9,61631400868696E-8;
-1,26695055685018E-7;
-1,80791517017236E-7;
-2,16445301127754E-7;
-1,87338967208453E-7;
-8,02105911509025E-8;
6,95899602125933E-8;
1,97809036457899E-7;
2,52349203400171E-7;
2,25299483113151E-7;
1,52945150230023E-7;
8,57348763458276E-8;
5,26337217312682E-8;
4,66480968243733E-8;
3,97274051748912E-8;
1,15520232752783E-8;
-3,28674115378604E-8;
-7,03863243628358E-8;
-8,33497158831612E-8;
-7,74377096923869E-8;
-7,71972325312234E-8;
-1,02612899447598E-7;
-1,47093597549202E-7;
-1,76939199352816E-7;
-1,54867747477442E-7;
-6,99669228845211E-8;
4,97867584133856E-8;
1,53176029249785E-7;
1,98465905308529E-7;
1,78976653715468E-7;
1,23180817581824E-7;
7,09431220471832E-8;
4,52662374425864E-8;
4,07683428989955E-8;
3,53986069923445E-8;
1,31291758234747E-8;
-2,2149106573272E-8;
-5,22538473866224E-8;
-6,32605202333191E-8;
-5,95202119533452E-8;
-6,01973917792182E-8;
-8,09590484575324E-8;
-1,16743639561074E-7;
-1,41290293749705E-7;
-1,25424733363994E-7;
-6,03589163672876E-8;
3,25050926713789E-8;
1,13605989496366E-7;
1,50491317375672E-7;
1,37602884068854E-7;
9,64677423958669E-8;
5,75168314720696E-8;
3,8423806021569E-8;
3,52368387120754E-8;
3,12450126514753E-8;
1,42436851055239E-8;
-1,28678202746201E-8;
-3,63259766564367E-8;
-4,55308354249277E-8;
-4,36574380474021E-8;
-4,50893582172463E-8;
-6,16506187282827E-8;
-8,96323779939935E-8;
-1,09381825288865E-7;
-9,89360069450391E-8;
-5,14157226813052E-8;
1,7592073147393E-8;
7,88526071924508E-8;
1,0815583409813E-7;
1,00969787993831E-7;
7,26937853077155E-8;
4,54244178911296E-8;
3,21198873660518E-8;
3,00759273628034E-8;
2,72945098672083E-8;
1,4952118579359E-8;
-4,92755014105898E-9;
-2,2478360533525E-8;
-3,00342993245161E-8;
-2,97457062275066E-8;
-3,17853715801695E-8;
-4,45844436641247E-8;
-6,56228286535466E-8;
-8,10669684240418E-8;
-7,53032875334657E-8;
-4,31540684543738E-8;
4,87861407202875E-9;
4,86349104687003E-8;
7,11554333182005E-8;
6,88344859365532E-8;
5,17253960739545E-8;
3,46232926145721E-8;
2,63538689621612E-8;
2,5297332576631E-8;
2,35708848631879E-8;
1,53096259942919E-8;
1,77424581470074E-9;
-1,05735510104858E-8;
-1,66348974755554E-8;
-1,76708006094357E-8;
-2,01831724811252E-8;
-2,96430150405911E-8;
-4,45582189036926E-8;
-5,61656187654133E-8;
-5,43981213077419E-8;
-3,55801670224423E-8;
-5,8040178205345E-9;
2,26564584488516E-8;
3,91592814752138E-8;
4,09310925876361E-8;
3,34067121252713E-8;
2,50591116238484E-8;
2,11227382034513E-8;
2,09071348053147E-8;
2,00887886516602E-8;
1,53628290467152E-8;
7,33894363721626E-9;
-4,67415076489401E-10;
-5,18495918790104E-9;
-7,30919611564607E-9;
-1,01749380956316E-8;
-1,66965425651439E-8;
-2,62626016715954E-8;
-3,44809390421324E-8;
-3,60782269435967E-8;
-2,86901658073383E-8;
-1,46306373926757E-8;
6,01859448920804E-10;
1,18150648635093E-8;
1,69753984478833E-8;
1,75728113682865E-8;
1,66686383583345E-8;
1,64131883393107E-8;
1,69031418616608E-8;
1,6857831194833E-8;
1,51625056892016E-8;
1,18712451892358E-8;
7,98384076778762E-9;
4,46654924404878E-9;
1,46789431637515E-9;
-1,64659284992725E-9;
-5,60675530553268E-9;
-1,0548377466212E-8;
-1,58027540285919E-8;
-2,01861328268001E-8;
-2,24702590896497E-8;
-2,17756597655648E-8;
-1,78451724221348E-8;
-1,12366791761645E-8;
-3,33029082121105E-9;
4,04845803889279E-9;
9,38183011260442E-9;
1,22093889008668E-8;
1,32814699394625E-8;
1,38823085166463E-8;
1,47510214315808E-8;
1,54714245781711E-8;
1,49263202897992E-8;
1,24720030912705E-8;
8,79127116478959E-9;
5,51998453681376E-9;
3,76746160382849E-9;
2,77604161961375E-9;
8,72085511153229E-11;
-6,55604106913403E-9;
-1,68999997117756E-8;
-2,74079637268606E-8;
-3,30076965826927E-8;
-3,0363907296768E-8;
-2,02845738294524E-8;
-7,34737159429644E-9;
3,12397876130625E-9;
8,48905997027713E-9;
1,00316070482988E-8;
1,11659369775849E-8;
1,41689291196055E-8;
1,82408338123957E-8;
2,05073730743475E-8;
1,89828853467859E-8;
1,47898933383744E-8;
1,14407109604682E-8;
1,15678195031536E-8;
1,39060508629271E-8;
1,34142442502094E-8;
4,98241942645888E-9;
-1,19561278943128E-8;
-3,1693027779872E-8;
-4,5199743553307E-8;
-4,59273260006429E-8;
-3,41904569962784E-8;
-1,67957685221585E-8;
-2,17949448989863E-9;
5,22736008400405E-9;
7,14245646707815E-9;
8,70551691316805E-9;
1,34511674433715E-8;
2,0275599496725E-8;
2,4866827452407E-8;
2,41486091511109E-8;
1,95941864850276E-8;
1,623245748212E-8;
1,79381045648793E-8;
2,30388907134764E-8;
2,44025064296694E-8;
1,46028803014786E-8;
-7,60753463407726E-9;
-3,47877831575814E-8;
-5,47285519964035E-8;
-5,8280502792419E-8;
-4,53378568763557E-8;
-2,44755525565774E-8;
-6,60790054473233E-9;
2,3996523991673E-9;
4,59581686536816E-9;
6,49579619337689E-9;
1,26332995677277E-8;
2,16620669733726E-8;
2,81387950655362E-8;
2,81130265227675E-8;
2,33270613565424E-8;
2,00109411040965E-8;
2,3019385401255E-8;
3,03653170995721E-8;
3,32718071708996E-8;
2,24778823483498E-8;
-3,82232283278957E-9;
-3,68444029465582E-8;
-6,18910158096521E-8;
-6,77704685054913E-8;
-5,40193413457886E-8;
-3,05640198851328E-8;
-1,02380089539101E-8;
-2,38803663722848E-11;
2,37346806465778E-9;
4,52696894372145E-9;
1,17427245410662E-8;
2,24909645309636E-8;
3,04570797002566E-8;
3,1015489971046E-8;
2,61101861321672E-8;
2,28853646963922E-8;
2,6946776054277E-8;
3,60741393627879E-8;
4,02385777355468E-8;
2,87743694691118E-8;
-5,64686091674023E-10;
-3,80005964263391E-8;
-6,69693301049162E-8;
-7,47236889953629E-8;
-6,05059589237906E-8;
-3,52295162708721E-8;
-1,31456714421146E-8;
-2,07327130856248E-9;
4,57607992919993E-10;
2,79209602157133E-9;
1,08053901168359E-8;
2,28401451129997E-8;
3,19412761678257E-8;
3,29866668481547E-8;
2,80581625825599E-8;
2,49606462384602E-8;
2,98512930667035E-8;
4,03447734111582E-8;
4,55100248062316E-8;
3,36588956152971E-8;
2,20324579569608E-9;
-3,83904235330858E-8;
-7,02318026793458E-8;
-7,94559545346512E-8;
-6,50651874646023E-8;
-3,86366302324927E-8;
-1,54067232633101E-8;
-3,77905014024139E-9;
-1,17369138421855E-9;
1,27780041469714E-9;
9,8438182103438E-9;
2,2783876375593E-8;
3,27073718917677E-8;
3,41483952574801E-8;
2,92768459158007E-8;
2,63367928657117E-8;
3,18569671383699E-8;
4,3350399504256E-8;
4,92858049381621E-8;
3,72891300405891E-8;
4,51927072691051E-9;
-3,81333618674823E-8;
-7,19252541124853E-8;
-8,22573043071474E-8;
-6,79414988136951E-8;
-4,09408984403763E-8;
-1,70914155181788E-8;
-5,16791099570503E-9;
-2,5416458617499E-9;
-2,88205993777804E-11;
8,87756011704806E-9;
2,23883646117188E-8;
3,28600836446843E-8;
3,46191769579566E-8;
2,98694514168562E-8;
2,71065026140104E-8;
3,30787178623938E-8;
4,52486609323743E-8;
5,17512090088976E-8;
3,98128468525109E-8;
6,42174188842641E-9;
-3,73395210724741E-8;
-7,22850945900968E-8;
-8,34036174748204E-8;
-6,93673339411561E-8;
-4,2287010274032E-8;
-1,82681992551748E-8;
-6,27288089836203E-9;
-3,66742050389476E-9;
-1,13948573204223E-9;
7,92139618581244E-9;
2,17185190149158E-8;
3,25024820127523E-8;
3,45034114228038E-8;
2,99292880869378E-8;
2,73592218980122E-8;
3,36274773675394E-8;
4,6195111843564E-8;
5,30849391892967E-8;
4,13739113180769E-8;
7,94710775315702E-9;
-3,61120124050794E-8;
-7,15223267132719E-8;
-8,31488361441042E-8;
-6,95588299825548E-8;
-4,28087222356595E-8;
-1,90024171959693E-8;
-7,12295578619228E-9;
-4,57346023683023E-9;
-2,07182331504925E-9;
6,99012527826294E-9;
2,08287118730363E-8;
3,17192404284572E-8;
3,38986535094262E-8;
2,95412436967985E-8;
2,71748731774283E-8;
3,36048279906185E-8;
4,63275746888228E-8;
5,34492836571676E-8;
4,2103345717646E-8;
9,13282046087347E-9;
-3,45387894841816E-8;
-6,98337020970572E-8;
-8,17262468975039E-8;
-6,87142980434407E-8;
-4,26348881322784E-8;
-1,93523747871338E-8;
-7,74424620366314E-9;
-5,2810386083293E-9;
-2,83611312460083E-9;
6,09382522827491E-9;
1,97674576777285E-8;
3,05941931619361E-8;
3,28948684315212E-8;
2,87846399025133E-8;
2,66257118213797E-8;
3,31025331764194E-8;
4,57762614628275E-8;
5,29949589585252E-8;
4,21241338184504E-8;
1,00155127126262E-8;
-3,27003529992152E-8;
-6,73941803962334E-8;
-7,93456275569022E-8;
-6,70122005185318E-8;
-4,18772363252239E-8;
-1,93762986499973E-8;
-8,16451173988809E-9;
-5,80850952227941E-9;
-3,44973018561797E-9;
5,24151262191864E-9;
1,85818871921793E-8;
2,91987649971044E-8;
3,15707367213678E-8;
2,77313238593969E-8;
2,57805594842102E-8;
3,22060280958726E-8;
4,46611508434366E-8;
5,18626579619122E-8;
4,15511734331659E-8;
1,06299469932501E-8;
-3,06710793948003E-8;
-6,43632075637717E-8;
-7,61971903630621E-8;
-6,46192259597741E-8;
-4,06440893869018E-8;
-1,91250152388986E-8;
-8,40983396119853E-9;
-6,17960233773524E-9;
-3,92607451081289E-9;
4,43915650206986E-9;
1,73086468124736E-8;
2,75995808182776E-8;
2,99993126692465E-8;
2,64445499402133E-8;
2,4697996983732E-8;
3,09914232446586E-8;
4,30872108004562E-8;
5,01743217490309E-8;
4,04860879037343E-8;
1,10085250714516E-8;
-2,85112715866454E-8;
-6,08824746756701E-8;
-7,24544561225327E-8;
-6,16819557380933E-8;
-3,90287742195837E-8;
-1,86451232903597E-8;
-8,50257328861489E-9;
-6,41176885604154E-9;
-4,27847142951543E-9;
3,69227312036466E-9;
1,59811922162245E-8;
2,58542653593423E-8;
2,82438594358216E-8;
2,49802402997324E-8;
2,34344698454682E-8;
2,95292168715828E-8;
4,11539300635675E-8;
4,80456578976851E-8;
3,90207250515251E-8;
1,11820617135975E-8;
-2,62765149884933E-8;
-5,7077908512243E-8;
-6,82664907081007E-8;
-5,83300013847098E-8;
-3,71157460363748E-8;
-1,79805495079574E-8;
-8,46469921426523E-9;
-6,52087641089246E-9;
-4,52280371587726E-9;
3,00398212873808E-9;
1,46311685711994E-8;
2,40101176390641E-8;
2,63615344264005E-8;
2,33913548213131E-8;
2,20354869080936E-8;
2,78787331814385E-8;
3,89435898242576E-8;
4,55783067630176E-8;
3,72452061683162E-8;
1,11805506604175E-8;
-2,40120162338732E-8;
-5,30564354284028E-8;
-6,37685050944248E-8;
-5,46799278321958E-8;
-3,49805303486846E-8;
-1,71697154049737E-8;
-8,3176186596525E-9;
-6,52697935680037E-9;
-4,66947089086224E-9;
2,37568256084739E-9;
1,32796487945281E-8;
2,21128757940183E-8;
2,43979137246252E-8;
2,1718213899162E-8;
2,05460878067319E-8;
2,6095668103426E-8;
3,65334670014785E-8;
4,28594299163285E-8;
3,52279602923643E-8;
1,1028536665301E-8;
-2,17578522112836E-8;
-4,89149823634705E-8;
-5,90758915347208E-8;
-5,08326193826253E-8;
-3,26904461939956E-8;
-1,62482421894059E-8;
-8,0816652912841E-9;
-6,44486548787865E-9;
-4,73317237391581E-9;
1,80702758293384E-9;
1,19501136726337E-8;
2,01989211110497E-8;
2,23975852592073E-8;
2,00012888493831E-8;
1,90002452945333E-8;
2,42267547103566E-8;
3,39918959599348E-8;
3,9970869268106E-8;
3,304016114841E-8;
1,07528043911494E-8;
-1,95455699789852E-8;
-4,4731168256943E-8;
-5,42888978203457E-8;
-4,68759879757018E-8;
-3,03010394663571E-8;
-1,52455059399186E-8;
-7,77258667367441E-9;
-6,28914589737273E-9;
-4,7240310860981E-9;
1,2985499579645E-9;
1,06572268223091E-8;
1,82993499961232E-8;
2,03954220045373E-8;
1,82726075317261E-8;
1,74293004878915E-8;
2,23109352023266E-8;
3,13753316700037E-8;
3,69796311584768E-8;
3,07386179662237E-8;
1,03754828666502E-8;
-1,74024540341285E-8;
-4,05755383994234E-8;
-4,94929095745387E-8;
-4,28852924198916E-8;
-2,78652085130687E-8;
-1,4187976752715E-8;
-7,40469396839778E-9;
-6,07283563381634E-9;
-4,65387809485813E-9;
8,47917540410814E-10;
9,41610992049257E-9;
1,64397903937562E-8;
1,84203189698071E-8;
1,65592502817946E-8;
1,5862339205601E-8;
2,0385427678787E-8;
2,87327329872175E-8;
3,39459126145226E-8;
2,83740692348471E-8;
9,91747046220379E-9;
-1,53492420215958E-8;
-3,65053572977266E-8;
-4,47585241538613E-8;
-3,89233927237139E-8;
-2,54245973429703E-8;
-1,31004251437001E-8;
-6,99349769965669E-9;
-5,80721165461669E-9;
-4,53196312644126E-9;
4,54497170096427E-10;
8,23718950349656E-9;
1,46417757240432E-8;
1,64979325026381E-8;
1,48821090305729E-8;
1,43190246076074E-8;
1,84796450167554E-8;
2,61072300551357E-8;
3,09187052357568E-8;
2,59895693349843E-8;
9,39686687442107E-9;
-1,34015506609078E-8;
-3,25641520813822E-8;
-4,01454652884424E-8;
-3,50433079773969E-8;
-2,30152215487264E-8;
-1,20033969122346E-8;
-6,55046935381478E-9;
-5,50434611557952E-9;
-4,36799843830672E-9;
1,1515319612311E-10;
7,12740749122915E-9;
1,29218268112816E-8;
1,46467087328601E-8;
1,32606127319442E-8;
1,28192223800593E-8;
1,66161928559238E-8;
2,35329104312368E-8;
2,79401209025086E-8;
2,36211942487113E-8;
8,83000313163676E-9;
-1,15737401538396E-8;
-2,87908471963077E-8;
-3,57005498375381E-8;
-3,12883032566019E-8;
-2,06659362268529E-8;
-1,09120882841909E-8;
-6,08679437263381E-9;
-5,1744307453194E-9;
-4,17120446700576E-9;
-1,73951011531354E-10;
6,09160063685142E-9;
1,12915739298916E-8;
1,2884100960335E-8;
1,17126090330154E-8;
1,13774591370348E-8;
1,48144810779135E-8;
2,10389566924019E-8;
2,50449867362662E-8;
2,12995521192668E-8;
8,23135041064769E-9;
-9,87087608458945E-9;
-2,52107734974444E-8;
-3,1461104774246E-8;
-2,76910277708399E-8;
-1,83994323383171E-8;
-9,84149627670152E-9;
-5,61263933904889E-9;
-4,82435869416162E-9;
-3,94703846192774E-9;
-4,15990727210226E-10;
5,13464047406012E-9;
9,76279398251319E-9;
1,12197666250407E-8;
1,02435399765144E-8;
1,00053094259575E-8;
1,30938276713192E-8;
1,86477369546215E-8;
2,22604348892112E-8;
1,90512194131599E-8;
7,61518890293921E-9;
-8,30038598018659E-9;
-2,18477585244298E-8;
-2,7455029349614E-8;
-2,42791506499982E-8;
-1,62378843645097E-8;
-8,80470367510134E-9;
-5,13558918060667E-9;
-4,46306775141424E-9;
-3,70455819538636E-9;
-6,14768112426261E-10;
4,25648230830672E-9;
8,33898021344362E-9;
9,66229066639681E-9;
8,86495954306763E-9;
8,71113141244372E-9;
1,14620738368426E-8;
1,63745383695711E-8;
1,96077665415901E-8;
1,68960264602391E-8;
6,99135664069674E-9;
-6,86276553198543E-9;
-1,87142199961858E-8;
-2,37041961826014E-8;
-2,10697504452102E-8;
-1,41915780419689E-8;
-7,80931575666622E-9;
-4,66240639039026E-9;
-4,09700491131221E-9;
-3,44901468153339E-9;
-7,74011735371063E-10;
3,45845993956333E-9;
7,02610865537392E-9;
8,21867741787328E-9;
7,58113059740288E-9;
7,50032908923381E-9;
9,93139266547215E-9;
1,42360933346212E-8;
1,7104871412763E-8;
1,48482250331124E-8;
6,36934950422331E-9;
-5,55827246599783E-9;
-1,58189031235792E-8;
-2,02185939570537E-8;
-1,80776858344181E-8;
-1,22733180346914E-8;
-6,86208497921414E-9;
-4,19962462158443E-9;
-3,73244325506164E-9;
-3,18619019648491E-9;
-8,96106810691282E-10;
2,74065560019716E-9;
5,82339364526274E-9;
6,88907692487105E-9;
6,39749880864507E-9;
6,37889836997819E-9;
8,50506616130036E-9;
1,22397362516838E-8;
1,4761654454544E-8;
1,29184767529006E-8;
5,75686966564908E-9;
-4,38542373480064E-9;
-1,3166970568292E-8;
-1,70093581307409E-8;
-1,53101512452878E-8;
-1,04894130072282E-8;
-5,97021927379811E-9;
-3,7500446639731E-9;
-3,37374257070915E-9;
-2,9208520710558E-9;
-9,85547349355246E-10;
2,09831687088157E-9;
4,73242480597452E-9;
5,67729181632105E-9;
5,31242672408633E-9;
5,34603483137967E-9;
7,18706761742769E-9;
1,03911801605946E-8;
1,25874706781032E-8;
1,11180101780324E-8;
5,16247986490339E-9;
-3,33957880220868E-9;
-1,07538806669564E-8;
-1,40743139641658E-8;
-1,27727642444203E-8;
-8,84368447365796E-9;
-5,13671891038276E-9;
-3,32020570311416E-9;
-3,02260238526013E-9;
-2,6552726783268E-9;
-1,04662917934088E-9;
1,53049661935168E-9;
3,75004843004479E-9;
4,58077346020579E-9;
4,32733406542953E-9;
4,40356000557977E-9;
5,98041850318961E-9;
8,69326877878056E-9;
1,05847057363049E-8;
9,44845229029095E-9;
4,58812697288487E-9;
-2,41495522390937E-9;
-8,57788975855701E-9;
-1,14146657082139E-8;
-1,04629930482963E-8;
-7,3380206638314E-9;
-4,36463057879362E-9;
-2,91086237401123E-9;
-2,68512386361817E-9;
-2,39547441378322E-9;
-1,08321097005241E-9;
1,03264333464032E-9;
2,87322977189191E-9;
3,59505584222469E-9;
3,43925072411285E-9;
3,55026023599178E-9;
4,8817606141559E-9;
7,14495754724589E-9;
8,75403152354941E-9;
7,91456311144538E-9;
4,0425546771179E-9;
-1,60726143807716E-9;
-6,63371669770168E-9;
-9,02225992375495E-9;
-8,3776232765645E-9;
-5,97120967986214E-9;
-3,65466499998665E-9;
-2,52647051003412E-9;
-2,36270790871671E-9;
-2,14035830294363E-9;
-1,09601809186295E-9;
6,0222869407695E-10;
2,09866610134375E-9;
2,71809725076701E-9;
2,64530636483234E-9;
2,7846825685589E-9;
3,89187237950727E-9;
5,7441451340484E-9;
7,09447240357619E-9;
6,51544605760313E-9;
3,52490104459902E-9;
-9,08333473013665E-10;
-4,90970783929217E-9;
-6,88903987346357E-9;
-6,50900329526179E-9;
-4,73899177157824E-9;
-3,00572281636316E-9;
-2,16607293000932E-9;
-2,06041985554383E-9;
-1,89807032358671E-9;
-1,09104273135502E-9;
2,3201893587578E-10;
1,41845654396426E-9;
1,94409342951317E-9;
1,94278142137168E-9;
2,10361128366837E-9;
3,00751214921549E-9;
4,49041888874035E-9;
5,60207752037045E-9;
5,24809767840063E-9;
3,0406793985047E-9;
-3,10621805080211E-10;
-3,39590501260638E-9;
-5,00343606363086E-9;
-4,85217060184234E-9;
-3,63857346746316E-9;
-2,41814663894497E-9;
-1,83356212304562E-9;
-1,77455666372121E-9;
-1,66602401094573E-9;
-1,07157206366167E-9;
-7,90518547725255E-11;
8,30223478453326E-10;
1,26870788927243E-9;
1,32770711912923E-9;
1,50252128317732E-9;
2,22051449360244E-9;
3,37255855730548E-9;
4,27003356460537E-9;
4,1100454142498E-9;
2,5905163043811E-9;
1,93664735832755E-10;
-2,08132715057705E-9;
-3,35300897706002E-9;
-3,3933884494501E-9;
-2,66402683800161E-9;
-1,88998789188724E-9;
-1,52680341139239E-9;
-1,50823912696732E-9;
-1,44573031918112E-9;
-1,03827045432312E-9;
-3,38176321306587E-10;
3,25744164480833E-10;
6,85054449514103E-10;
7,914499971146E-10;
9,75687302001773E-10;
1,53083347139113E-9;
2,38834266474907E-9;
3,09203622289192E-9;
3,09616807724594E-9;
2,17240891422652E-9;
6,10672797422803E-10;
-9,49495646764739E-10;
-1,92316507919299E-9;
-2,12378349620631E-9;
-1,80801286937852E-9;
-1,41957176317714E-9;
-1,24643047369795E-9;
-1,26299664418097E-9;
-1,24076242368983E-9;
-9,92970249985634E-10;
-5,48176100082247E-10;
-1,00135469264395E-10;
1,87454628054024E-10;
3,32481927736942E-10;
5,2300912811293E-10;
9,3144149663021E-10;
1,52855461635631E-9;
2,06018546944053E-9;
2,20161875807892E-9;
1,79111354057861E-9;
9,50144266483692E-10;
9,14257482866342E-12;
-6,98074698932711E-10;
-1,02831612148157E-9;
-1,06547433365265E-9;
-1,00567342906499E-9;
-9,94181596722607E-10;
-1,03840281626703E-9;
-1,04885031600296E-9;
-9,41925380016306E-10;
-7,17585178267305E-10;
-4,54768907456422E-10;
-2,3246204177946E-10;
-5,72600539662858E-11;
1,34750127078802E-10;
4,14504109661496E-10;
7,86501200896481E-10;
1,16576029602872E-9;
1,42016035854976E-9;
1,44422151524114E-9;
1,21846275200412E-9;
8,11949131163742E-10;
3,37983908778081E-10;
-9,75241722451366E-11;
-4,28276131354337E-10;
-6,42086391769187E-10;
-7,65689638809252E-10;
-8,34114422891679E-10;
-8,72707594544754E-10;
-8,82150841396501E-10;
-8,45804355714444E-10;
-7,44972016956731E-10;
-5,79569278828678E-10;
-3,8278159412943E-10;
-1,92438844145546E-10;
-2,32963517949095E-11;
1,52969972455933E-10;
3,98144022071312E-10;
7,42462400925536E-10;
1,13102492403913E-9;
1,42509946684202E-9;
1,470713706526E-9;
1,19853495706151E-9;
6,83353877753029E-10;
1,12739002091735E-10;
-3,28102742845858E-10;
-5,63001830745544E-10;
-6,49932844634218E-10;
-7,11320704448286E-10;
-8,20010396861106E-10;
-9,41959854126021E-10;
-9,76228004060387E-10;
-8,60981853082208E-10;
-6,47771015674937E-10;
-4,62904233646205E-10;
-3,92590650600954E-10;
-3,80991502692116E-10;
-2,49689707158432E-10;
1,63869437785125E-10;
8,51802654693468E-10;
1,57592541815671E-9;
1,99900416380717E-9;
1,90134559784925E-9;
1,32768053862623E-9;
5,65626142730142E-10;
-5,8685403719169E-11;
-3,84360037047121E-10;
-4,8498203902582E-10;
-5,63977459227244E-10;
-7,54004830571028E-10;
-1,00670641426313E-9;
-1,15393958869009E-9;
-1,08406488569723E-9;
-8,62433364420588E-10;
-6,83536337328288E-10;
-6,93831000094144E-10;
-8,22308051013209E-10;
-7,91026449954602E-10;
-3,2429459258056E-10;
6,0347656455576E-10;
1,67751243127908E-9;
2,41147900358452E-9;
2,4612892248968E-9;
1,84842385812007E-9;
9,35910996517143E-10;
1,67242029531995E-10;
-2,27978482356042E-10;
-3,39412470855004E-10;
-4,33292884902347E-10;
-6,87803514160621E-10;
-1,04442283779602E-9;
-1,28562051188509E-9;
-1,25514989524647E-9;
-1,02765814665402E-9;
-8,57167706524521E-10;
-9,37559286648924E-10;
-1,18145919458412E-9;
-1,23345192418081E-9;
-7,29834234250763E-10;
3,84938514407303E-10;
1,7360958581458E-9;
2,72180439076753E-9;
2,89540933678354E-9;
2,25792917366322E-9;
1,23424623847775E-9;
3,54629773042415E-10;
-9,35155022774997E-11;
-2,10260335741411E-10;
-3,14024582460028E-10;
-6,20002215531022E-10;
-1,06209573488875E-9;
-1,37736536337114E-9;
-1,37864567150654E-9;
-1,15186557541133E-9;
-9,90979608515183E-10;
-1,12775829301275E-9;
-1,46512481844614E-9;
-1,58662384810196E-9;
-1,06064483077354E-9;
1,94600072207788E-10;
1,75991779776141E-9;
2,94051925662088E-9;
3,21513835482273E-9;
2,56762365325629E-9;
1,46469240735569E-9;
5,07803760807969E-10;
2,2140127665222E-11;
-1,008569533138E-10;
-2,11202677695157E-10;
-5,54289838917277E-10;
-1,05952936418336E-9;
-1,43351979218458E-9;
-1,46235019771558E-9;
-1,23789809129386E-9;
-1,08874710160566E-9;
-1,27085705310438E-9;
-1,68192770990601E-9;
-1,86132867454128E-9;
-1,32258767249824E-9;
3,26661316427931E-11;
1,7528006122999E-9;
3,08103137752836E-9;
3,43730158279357E-9;
2,78880919299788E-9;
1,63728620292894E-9;
6,29942022137714E-10;
1,19633210571305E-10;
-4,45528145436743E-12;
-1,19421545444182E-10;
-4,90346553996637E-10;
-1,04180176819995E-9;
-1,45851015471338E-9;
-1,51139349514799E-9;
-1,29318655734057E-9;
-1,15375079228931E-9;
-1,37255835689171E-9;
-1,83934293915506E-9;
-2,06373829704874E-9;
-1,52487380620635E-9;
-1,06850988753115E-10;
1,71967295831682E-9;
3,1523175030869E-9;
3,57164155281596E-9;
2,93585154030987E-9;
1,76013171647086E-9;
7,2242942173038E-10;
1,99423147739204E-10;
7,60310656858368E-11;
-4,00891179514531E-11;
-4,27833005012997E-10;
-1,0105449962093E-9;
-1,45820972868232E-9;
-1,52928353648179E-9;
-1,3189243207916E-9;
-1,19226680278836E-9;
-1,43763971982204E-9;
-1,94478970288139E-9;
-2,20531080600055E-9;
-1,67175515334623E-9;
-2,20883415481166E-10;
1,66604484283832E-9;
3,16498150661567E-9;
3,63273051046642E-9;
3,01478193893165E-9;
1,83565177627332E-9;
7,90393359127348E-10;
2,64371908580773E-10;
1,44265913173113E-10;
2,75410581779056E-11;
-3,70411277840703E-10;
-9,69121045359139E-10;
-1,43552924142292E-9;
-1,52148577400575E-9;
-1,322372713101E-9;
-1,20872218258521E-9;
-1,47261870839077E-9;
-2,0057054421513E-9;
-2,29141931599732E-9;
-1,77208306757473E-9;
-3,16804139976729E-10;
1,59567710019179E-9;
3,13050301482792E-9;
3,63153276728783E-9;
3,03846909826655E-9;
1,87414783393999E-9;
8,36295023791889E-10;
3,15451190664377E-10;
1,98730556601654E-10;
8,36091071926779E-11;
-3,14226757815854E-10;
-9,19091243441948E-10;
-1,39571036881027E-9;
-1,49298713973747E-9;
-1,30600301503813E-9;
-1,20255959345919E-9;
-1,47930838128923E-9;
-2,02868324500418E-9;
-2,33270015959897E-9;
-1,83242484645093E-9;
-3,91947842727084E-10;
1,51300992703917E-9;
3,0547923714158E-9;
3,57765693731432E-9;
3,01367725672723E-9;
1,87917084947881E-9;
8,63629100088609E-10;
3,5484051755723E-10;
2,43254323455421E-10;
1,30479089505655E-10;
-2,63702943002637E-10;
-8,64155690186311E-10;
-1,34162761315684E-9;
-1,44657167422325E-9;
-1,27189611551245E-9;
-1,18166178737101E-9;
-1,46555379248746E-9;
-2,01885919530434E-9;
-2,33337013168113E-9;
-1,85644557103337E-9;
-4,50738109252417E-10;
1,42137907938142E-9;
2,94646459667965E-9;
3,47841452533709E-9;
2,94911701676142E-9;
1,85730578967382E-9;
8,74676418205216E-10;
3,83370638884116E-10;
2,77135110152524E-10;
1,68495430262779E-10;
-2,16317161933767E-10;
-8,05084041193316E-10;
-1,27627624465895E-9;
-1,38749734477758E-9;
-1,22568287643422E-9;
-1,14490663238141E-9;
-1,43104215918332E-9;
-1,98054995606185E-9;
-2,29971879108331E-9;
-1,85066416637403E-9;
-4,94266773949372E-10;
1,32280124308547E-9;
2,81235872135715E-9;
3,34649347005189E-9;
2,85290672640627E-9;
1,81110490241746E-9;
8,708247241202E-10;
4,00923308246522E-10;
3,01158453096266E-10;
1,99082305980882E-10;
-1,72138413205016E-10;
-7,43855409426146E-10;
-1,20352941652009E-9;
-1,31650456479253E-9;
-1,16843872249121E-9;
-1,09898842147248E-9;
-1,38211556309434E-9;
-1,92070231174702E-9;
-2,2401138159367E-9;
-1,82028836376117E-9;
-5,23731557132082E-10;
1,22133292824643E-9;
2,65912690875486E-9;
3,18699321647924E-9;
2,73035278093692E-9;
1,74640098294363E-9;
8,56251088297352E-10;
4,11533631660751E-10;
3,18472518383852E-10;
2,22204237517527E-10;
-1,32800813123892E-10;
-6,80284065647373E-10;
-1,1233198619801E-9;
-1,23876496925042E-9;
-1,10462154345261E-9;
-1,04440084193263E-9;
-1,32151814654661E-9;
-1,84358650431601E-9;
-2,15766059048931E-9;
-1,76894743339366E-9;
-5,43245925806284E-10;
1,11740878007345E-9;
2,49219516203843E-9;
3,00732597858373E-9;
2,58952578630489E-9;
1,66795110904149E-9;
8,31864335980311E-10;
4,14228669072995E-10;
3,28179513478796E-10;
2,3824611823512E-10;
-9,77577605810442E-11;
-6,17694779679927E-10;
-1,04161329139152E-9;
-1,15514521486111E-9;
-1,03333408254021E-9;
-9,82536061802307E-10;
-1,25025136537665E-9;
-1,75173699126693E-9;
-2,05812875287946E-9;
-1,70012334838378E-9;
-5,51461699665658E-10;
1,0134342705435E-9;
2,31695730055824E-9;
2,81256745698699E-9;
2,4323579518618E-9;
1,57817730571996E-9;
7,99116957139696E-10;
4,10567091450532E-10;
3,31744279594682E-10;
2,49178747640524E-10;
-6,54092514088262E-11;
-5,55186645905371E-10;
-9,56322851623359E-10;
-1,06845848893845E-9;
-9,60420206252538E-10;
-9,18421619553215E-10;
-1,17447096260004E-9;
-1,65022514234028E-9;
-1,94546691935431E-9;
-1,61842927813393E-9;
-5,49285655522224E-10;
9,11344994808916E-10;
2,1333351539284E-9;
2,6083070282605E-9;
2,26737507339208E-9;
1,48023423285946E-9;
7,59144926874439E-10;
4,01273713905542E-10;
3,31322658811249E-10;
2,54619190676827E-10;
-3,8407754468321E-11;
-4,94405911262786E-10;
-8,71285010230624E-10;
-9,7966731877766E-10;
-8,83684287195415E-10;
-8,51471475897434E-10;
-1,09383153291082E-9;
-1,54016705240446E-9;
-1,82286346788859E-9;
-1,52768258759735E-9;
-5,41500567568039E-10;
8,12053038194659E-10;
1,94987233076486E-9;
2,39977365939933E-9;
2,09577093089195E-9;
1,37671554586125E-9;
7,16926751849401E-10;
3,90055904685673E-10;
3,25690336263138E-10;
2,55269658224998E-10;
-1,51223593309482E-11;
-4,370588419301E-10;
-7,86202317689643E-10;
-8,90826594499188E-10;
-8,07590898400479E-10;
-7,80959583829047E-10;
-1,01018413788738E-9;
-1,42787879808901E-9;
-1,69406592195151E-9;
-1,43035917001368E-9;
-5,28819590059493E-10;
7,16118438090797E-10;
1,76896262048726E-9;
2,19173823012038E-9;
1,92110318656129E-9;
1,26942680661584E-9;
6,6973006012055E-10;
3,73568719060721E-10;
3,1667429185853E-10;
2,53502701167589E-10;
6,98976048075725E-12;
-3,82074340705377E-10;
-7,04807108797077E-10;
-8,02805228222101E-10;
-7,31933716139005E-10;
-7,11809478462815E-10;
-9,24880171453101E-10;
-1,31303152047972E-9;
-1,56235678336903E-9;
-1,3270451599189E-9;
-5,08919766858038E-10;
6,26029558989061E-10;
1,59054471002453E-9;
1,98442225830822E-9;
1,74768772537228E-9;
1,1630574903819E-9;
6,22841757895631E-10;
3,55471125406713E-10;
3,04985279296973E-10;
2,48305543049144E-10;
2,34115077392653E-11;
-3,30291340721462E-10;
-6,26162124378095E-10;
-7,19697368086766E-10;
-6,56610478111731E-10;
-6,42324340403051E-10;
-8,4077585906807E-10;
-1,19682452428295E-9;
-1,43003250523458E-9;
-1,22299011873757E-9;
-4,85850063832133E-10;
5,41493127412108E-10;
1,41840930452173E-9;
1,78102855643967E-9;
1,57595620472009E-9;
1,05539347987716E-9;
5,72888882542393E-10;
3,34611515835623E-10;
2,90164036250745E-10;
2,39966430412211E-10;
3,75492369614239E-11;
-2,81577432711101E-10;
-5,50130626040647E-10;
-6,37969123390494E-10;
-5,85626987685088E-10;
-5,76192051194112E-10;
-7,58342366110641E-10;
-1,08389922465771E-9;
-1,29798666497222E-9;
-1,1173039855929E-9;
-4,60038591805336E-10;
4,62201714198757E-10;
1,25377125018468E-9;
1,58724418073227E-9;
1,4110868109496E-9;
9,51104354427359E-10;
5,23706692866945E-10;
3,12157245998912E-10;
2,73904637242002E-10;
2,30459563900758E-10;
4,98635535833984E-11;
-2,36738616102438E-10;
-4,78746674105027E-10;
-5,59747634763272E-10;
-5,16917708671433E-10;
-5,11665240435137E-10;
-6,77704877676132E-10;
-9,72505382809692E-10;
-1,16899669117593E-9;
-1,01422620183128E-9;
-4,31311552415699E-10;
3,89742257446358E-10;
1,09653631970859E-9;
1,40000299084396E-9;
1,2518545947772E-9;
8,50129864202486E-10;
4,74533562004186E-10;
2,88913455782145E-10;
2,5637845440195E-10;
2,18555052969607E-10;
5,88714977982482E-11;
-1,95990155733841E-10;
-4,1232292870125E-10;
-4,87078333800427E-10;
-4,52758132386626E-10;
-4,50630151371341E-10;
-6,00529089942842E-10;
-8,65552186125395E-10;
-1,04346908817382E-9;
-9,11917338440767E-10;
-4,01977841347347E-10;
3,2204974021712E-10;
9,49197718421122E-10;
1,22398800930224E-9;
1,10033957320585E-9;
7,51610797644526E-10;
4,26451958741709E-10;
2,65815160703815E-10;
2,38237405206772E-10;
2,06171368820715E-10;
6,53917652759545E-11;
-1,588101193062E-10;
-3,50514017957339E-10;
-4,18908642273731E-10;
-3,90822470654047E-10;
-3,92749163738053E-10;
-5,2695609445347E-10;
-7,62622073790569E-10;
-9,25118162123006E-10;
-8,13838158850406E-10;
-3,70507480700744E-10;
2,60964862942706E-10;
8,12771505675525E-10;
1,05802103258433E-9;
9,58063512404386E-10;
6,61933349589032E-10;
3,80622257215485E-10;
2,42422237294721E-10;
2,20003098468304E-10;
1,92001699145105E-10;
7,04157984759258E-11;
-1,2525496858998E-10;
-2,94088810668739E-10;
-3,55728558656108E-10;
-3,34084525865709E-10;
-3,38695963388179E-10;
-4,58332557674227E-10;
-6,65889476103012E-10;
-8,1070913860226E-10;
-7,19802455099924E-10;
-3,40204747792666E-10;
2,05729347091858E-10;
6,86049123632213E-10;
9,04413918311459E-10;
8,2453821694327E-10;
5,73868192788949E-10;
3,36113626085637E-10;
2,19398312266075E-10;
2,01148904032049E-10;
1,78179504123402E-10;
7,34339622684487E-11;
-9,51095973379582E-11;
-2,4183939970843E-10;
-2,97266512355471E-10;
-2,80931717970323E-10;
-2,88177705990139E-10;
-3,94719962252027E-10;
-5,75882813398222E-10;
-7,03592592670857E-10;
-6,30610092380478E-10;
-3,09087126369544E-10;
1,57833422588034E-10;
5,71495210265536E-10;
7,62538772938456E-10;
7,00681496197157E-10;
4,93248472965202E-10;
2,93915045513874E-10;
1,96911215152919E-10;
1,82447214289703E-10;
1,63802794441931E-10;
7,5494869076543E-11;
-6,86511218590605E-11;
-1,93530494009266E-10;
-2,43751362049451E-10;
-2,3405493073605E-10;
-2,41104572314959E-10;
-3,3370263170556E-10;
-4,91562731345623E-10;
-6,04815915387211E-10;
-5,48267161648194E-10;
-2,79445465251117E-10;
1,14474183079499E-10;
4,65477749358702E-10;
6,3220003345235E-10;
5,86601340949693E-10;
4,17415708986676E-10;
2,54988610765814E-10;
1,75444427587934E-10;
1,64129656984972E-10;
1,49579025583662E-10;
7,53003183377795E-11;
-4,59228547308623E-11;
-1,5192574274397E-10;
-1,95417948726886E-10;
-1,89907972121286E-10;
-1,99233130266799E-10;
-2,79398284948583E-10;
-4,15286828807933E-10;
-5,13056089153386E-10;
-4,69103693883915E-10;
-2,49309658671242E-10;
7,63454254121424E-11;
3,69540609503702E-10;
5,13795641467232E-10;
4,83617439693075E-10;
3,49658955923247E-10;
2,18342515583235E-10;
1,54773598615421E-10;
1,47110809515251E-10;
1,34714284184104E-10;
7,48678068911326E-11;
-2,50410720515034E-11;
-1,14738987525968E-10;
-1,52267382241452E-10;
-1,51784349206782E-10;
-1,61550959535881E-10;
-2,28582350944744E-10;
-3,43820850818968E-10;
-4,27509941513572E-10;
-3,97368329405939E-10;
-2,21831802240381E-10;
4,3875189339085E-11;
2,85208270579185E-10;
4,08743516437732E-10;
3,89415459665538E-10;
2,85976919126094E-10;
1,85434273992447E-10;
1,35249788992742E-10;
1,29607743687909E-10;
1,21448784670414E-10;
7,25109571682338E-11;
-8,17836041662771E-12;
-8,12515234125213E-11;
-1,14947232058525E-10;
-1,15683782480169E-10;
-1,26476959541249E-10;
-1,84143630192139E-10;
-2,78725177832975E-10;
-3,51354396249168E-10;
-3,30942455385141E-10;
-1,93655416896973E-10;
1,53430203084992E-11;
2,10510192069674E-10;
3,13772695512306E-10;
3,05150446353665E-10;
2,29047353081596E-10;
1,52950976868634E-10;
1,17392309084811E-10;
1,14329266608909E-10;
1,07786297297857E-10;
6,96773740341204E-11;
6,33600423889777E-12;
-5,19585028981566E-11;
-8,14177087208537E-11;
-8,5174266804312E-11;
-9,6233246542353E-11;
-1,44164034569915E-10;
-2,20671527493325E-10;
-2,8101475840571E-10;
-2,71062195646339E-10;
-1,68965158112681E-10;
-8,2238152433819E-12;
1,44225805738933E-10;
2,29837194462368E-10;
2,31008128290013E-10;
1,79136130036147E-10;
1,25146820208721E-10;
9,9407432451198E-11;
9,84085798565287E-11;
9,5389483820073E-11;
6,70995582034464E-11;
1,77530367373672E-11;
-2,80904844414221E-11;
-5,18346170405068E-11;
-5,76118247783963E-11;
-6,89893801861322E-11;
-1,08148577391494E-10;
-1,6915529552285E-10;
-2,18814092755865E-10;
-2,17357537922881E-10;
-1,44761154641722E-10;
-2,70404748731831E-11;
8,74158703960545E-11;
1,56711686414759E-10;
1,64469567483946E-10;
1,34365163752855E-10;
1,00038030309028E-10;
8,34549653951174E-11;
8,42472028001009E-11;
8,23382173601706E-11;
6,31612400762747E-11;
2,79085111035539E-11;
-6,57673558059298E-12;
-2,57410319480932E-11;
-3,37014599445873E-11;
-4,57510603997893E-11;
-7,64620382840131E-11;
-1,229726048475E-10;
-1,62860675427354E-10;
-1,68161611560531E-10;
-1,23415690837158E-10;
-4,35984351015737E-11;
3,80287234743837E-11;
9,1908921497286E-11;
1,06864719010087E-10;
9,44479345500104E-11;
7,66961489528016E-11;
6,97338596359623E-11;
7,20843692523659E-11;
7,13370416408167E-11;
5,87911272773861E-11;
3,59152654587883E-11;
1,15437739206889E-11;
-4,83732333085094E-12;
-1,39387366657415E-11;
-2,52313717487999E-11;
-4,77222057727373E-11;
-8,28832044070923E-11;
-1,15002130667721E-10;
-1,24783723285279E-10;
-1,03361815943773E-10;
-5,63738241612518E-11;
-3,28689695246835E-12;
3,7571328022098E-11;
5,72248688735429E-11;
5,9744068239947E-11;
5,61530927593139E-11;
5,56457963501944E-11;
5,96683562726365E-11;
6,09013943730858E-11;
5,49487282599397E-11;
4,15904014878484E-11;
2,60217156638478E-11;
1,37263061269663E-11;
3,25812433454712E-12;
-7,39901542911432E-12;
-2,39303991077396E-11;
-4,87314718068634E-11;
-7,20503202122862E-11;
-8,5398545993181E-11;
-8,4329573441789E-11;
-6,64321709086829E-11;
-3,78701814543138E-11;
-8,62190322058667E-12;
1,44231019182163E-11;
2,96988285251837E-11;
3,86330060273959E-11;
4,40304643615393E-11;
4,85027866493694E-11;
5,09140822531572E-11;
5,06691980824428E-11;
4,64892360900318E-11;
3,75857519153691E-11;
2,77481141861297E-11;
1,82382429902492E-11;
7,48361191681267E-12;
-4,29017998605272E-12;
-1,82900366220791E-11;
-3,55887378869173E-11;
-5,34655319570186E-11;
-6,81443555101481E-11;
-7,37317355728923E-11;
-6,67319195439013E-11;
-4,78208586629471E-11;
-2,08997922119621E-11;
3,84998991032028E-12;
2,21775384060198E-11;
3,39577471108068E-11;
3,79618514926204E-11;
4,08780505451538E-11;
4,6032440756007E-11;
4,91484214825908E-11;
4,76501441038614E-11;
4,03338993054404E-11;
3,00221648055507E-11;
2,08935350399325E-11;
1,35765262101402E-11;
7,13829605681096E-12;
-3,41353804715938E-12;
-2,4483252234536E-11;
-5,31757405282581E-11;
-7,76674689545542E-11;
-8,82630804697143E-11;
-7,91689579180845E-11;
-5,12816595047924E-11;
-1,68315148373096E-11;
1,05801955905458E-11;
2,43817001740534E-11;
2,93297820919478E-11;
3,43923156491962E-11;
4,22242623280346E-11;
5,08783737689186E-11;
5,48255020693581E-11;
5,01222764047827E-11;
3,93200789965294E-11;
3,00203888704701E-11;
2,68556539663819E-11;
2,78361938897362E-11;
2,33350494660874E-11;
-3,30320715125264E-13;
-3,98896206436925E-11;
-8,04518627003618E-11;
-1,07195834619285E-10;
-1,04500123708733E-10;
-7,46388933751073E-11;
-3,52469206168308E-11;
-1,79563361432259E-12;
1,64079033017222E-11;
2,22030205763572E-11;
2,64906585845363E-11;
3,66406731053426E-11;
5,14039401644237E-11;
5,99586835971712E-11;
5,65850640593318E-11;
4,68523570024918E-11;
3,78395745018328E-11;
3,8170236533277E-11;
4,56426295727415E-11;
4,4505444114453E-11;
2,09257947767097E-11;
-2,74022902853305E-11;
-8,28074491041755E-11;
-1,19920676065844E-10;
-1,23488033223066E-10;
-9,39081080528188E-11;
-4,90460440919703E-11;
-1,13961401186751E-11;
8,82596787235937E-12;
1,52448153722825E-11;
1,97311863443892E-11;
3,30281005098117E-11;
5,17219999151502E-11;
6,35076600258967E-11;
6,28833908469904E-11;
5,23080063182688E-11;
4,35994845192417E-11;
4,83652909288195E-11;
5,97057005006747E-11;
6,12340239184274E-11;
3,76553861826968E-11;
-1,65392436856983E-11;
-8,25577550698977E-11;
-1,29681814729333E-10;
-1,38054972951861E-10;
-1,08239973773417E-10;
-6,06053576756361E-11;
-1,92487627785023E-11;
2,63205009938601E-12;
8,30178228953123E-12;
1,43610792376764E-11;
2,94514812606533E-11;
4,9311720502343E-11;
6,53898088786192E-11;
6,65400667924477E-11;
5,47117451478834E-11;
4,75474095277966E-11;
5,48926524003566E-11;
6,99300719336618E-11;
7,57130551733155E-11;
5,13357567886051E-11;
-8,08481124825849E-12;
-8,04917251125224E-11;
-1,35046897108351E-10;
-1,4892606465907E-10;
-1,19834444150206E-10;
-6,89798062930905E-11;
-2,49998741913764E-11;
-3,10189227357443E-12;
3,05444695061028E-12;
8,74988347517938E-12;
2,48874038171952E-11;
4,86093002797598E-11;
6,63077692955601E-11;
6,8066512734563E-11;
5,72659236023506E-11;
5,12686478813216E-11;
6,04776095683513E-11;
7,79678964237286E-11;
8,57320708871791E-11;
6,13182942098033E-11;
-4,86664164279171E-13;
-7,81700489526787E-11;
-1,38419337321693E-10;
-1,55550847594184E-10;
-1,27103223011558E-10;
-7,53660051079454E-11;
-2,92827421417087E-11;
-6,14064576225001E-12;
-1,170107124139E-12;
4,92516378786411E-12;
2,19714757832975E-11;
4,64739763641648E-11;
6,57184076776427E-11;
6,84769022020248E-11;
5,90867126908643E-11;
5,30799574165225E-11;
6,33702689906886E-11;
8,41296791980213E-11;
9,32713408414434E-11;
6,8807717425958E-11;
6,32796258366287E-12;
-7,44676662953272E-11;
-1,3903888449223E-10;
-1,58664019527156E-10;
-1,31269073838516E-10;
-7,87068371894348E-11;
-3,32186091809615E-11;
-1,10357944984444E-11;
-4,13657724887161E-12;
1,06970443894652E-12;
1,72794426487136E-11;
4,35923448092182E-11;
6,45109502506816E-11;
6,84517431099143E-11;
5,946848802011E-11;
5,45388075628455E-11;
6,51578606920046E-11;
8,73813562584031E-11;
9,95336741494962E-11;
7,59444365156931E-11;
1,25189579127208E-11;
-6,99768361097809E-11;
-1,36798605427336E-10;
-1,5879800219624E-10;
-1,321128432164E-10;
-8,15612245915852E-11;
-3,75448926811372E-11;
-1,34945101980515E-11;
-7,58002958015289E-12;
-2,73073459301894E-12;
1,52387355473064E-11;
4,10446438729869E-11;
6,22296905968627E-11;
6,67593548732425E-11;
5,81726280474014E-11;
5,44333832354077E-11;
6,56157359723093E-11;
8,84771017805565E-11;
1,0160217793773E-10;
7,90129236329181E-11;
1,66007377819591E-11;
-6,58350247880655E-11;
-1,33441398147612E-10;
-1,56147619745675E-10;
-1,30852796239606E-10;
-8,17255770314413E-11;
-3,83205898449807E-11;
-1,53510120536471E-11;
-1,05193211336303E-11;
-5,94947257854674E-12;
1,24463338176839E-11;
3,90011010531786E-11;
5,96322845286697E-11;
6,38736489387264E-11;
5,65233050770492E-11;
5,26138262004257E-11;
6,46213584039595E-11;
8,96933487401085E-11;
1,0314384663753E-10;
8,18256649013314E-11;
2,09589573271596E-11;
-6,18294564228607E-11;
-1,29377077850721E-10;
-1,52367310817158E-10;
-1,29375340339212E-10;
-8,20304931972296E-11;
-3,89512005311241E-11;
-1,67388812603787E-11;
-1,24779901368998E-11;
-8,13433196025951E-12;
9,74375558578298E-12;
3,59571625923024E-11;
5,67738828779862E-11;
6,14625836643083E-11;
5,44120239268089E-11;
5,14332511843118E-11;
6,44094068121158E-11;
8,94355896805528E-11;
1,02385811478985E-10;
8,21689488027579E-11;
2,37248972339435E-11;
-5,71996869020949E-11;
-1,23507382472345E-10;
-1,46699012906785E-10;
-1,25511198474817E-10;
-8,07274836584149E-11;
-3,89003885210301E-11;
-1,80251308646399E-11;
-1,47580127447081E-11;
-9,04393915717822E-12;
8,29285089236712E-12;
3,25162384541193E-11;
5,26450757675825E-11;
5,8481632956763E-11;
5,24371738988043E-11;
4,93672728693249E-11;
6,25295138800866E-11;
8,69359905742005E-11;
1,0078092171752E-10;
8,20866491999576E-11;
2,44625247265234E-11;
-5,33896618967926E-11;
-1,16363062774888E-10;
-1,39588594934198E-10;
-1,20405084559204E-10;
-7,69195315022702E-11;
-3,86157909084965E-11;
-2,01008589019947E-11;
-1,47804564283543E-11;
-1,03480257033695E-11;
4,69755953801042E-12;
2,95633274916237E-11;
4,94728069341173E-11;
5,55381539577711E-11;
4,99173832989657E-11;
4,64467272040861E-11;
5,96698409891483E-11;
8,26323346353986E-11;
9,56523094702383E-11;
7,93667384823214E-11;
2,5448599007744E-11;
-4,7956130988261E-11;
-1,08722680650651E-10;
-1,32351284635917E-10;
-1,14750068450976E-10;
-7,48517382610334E-11;
-3,78518793992862E-11;
-1,94042708899858E-11;
-1,60721925252804E-11;
-1,1172198273221E-11;
3,52930142343439E-12;
2,58549028572089E-11;
4,58717986641944E-11;
5,10646133628926E-11;
4,58211754973783E-11;
4,47854850960896E-11;
5,67870974898267E-11;
7,95732317571932E-11;
9,41755931835196E-11;
7,84521947716909E-11;
2,71720441082433E-11;
-4,23750357664557E-11;
-1,005746326508E-10;
-1,23600410893747E-10;
-1,0784266395451E-10;
-7,1137880442143E-11;
-3,67006663334663E-11;
-1,88541380469027E-11;
-1,59298691025095E-11;
-1,3159415715354E-11;
1,23042470718646E-12;
2,37662056624936E-11;
4,18456415729055E-11;
4,7927995080016E-11;
4,31160765458597E-11;
4,08126381195765E-11;
5,37358635925868E-11;
7,49864789801494E-11;
8,83579812989445E-11;
7,46674744556168E-11;
2,66648389329621E-11;
-3,78267103217614E-11;
-9,27422812266663E-11;
-1,15106933701249E-10;
-1,00712617374137E-10;
-6,72844066562085E-11;
-3,59245920925184E-11;
-1,96583766713179E-11;
-1,60941828936749E-11;
-1,29380142269133E-11;
1,54532855019837E-13;
2,14610332398626E-11;
3,80347063507056E-11;
4,3106749902623E-11;
3,99067416454277E-11;
3,80846839914127E-11;
4,94228033907114E-11;
7,11043631795318E-11;
8,38447335318988E-11;
7,02973222455171E-11;
2,74588738048739E-11;
-3,26354369407002E-11;
-8,46219750985893E-11;
-1,04998812712967E-10;
-9,20876572537012E-11;
-6,18009433985156E-11;
-3,35681980001036E-11;
-1,93139453687819E-11;
-1,62255288747538E-11;
-1,2795111261528E-11;
-6,46004063073417E-13;
1,84337035130206E-11;
3,4318500060885E-11;
3,96700198827712E-11;
3,67652843867801E-11;
3,57739832498794E-11;
4,60396533682288E-11;
6,51266058204767E-11;
7,78100225959324E-11;
6,63533423120147E-11;
2,6127474836397E-11;
-2,92869758519082E-11;
-7,65832189383169E-11;
-9,64862052001654E-11;
-8,5754679134852E-11;
-5,77150530800739E-11;
-3,11105602344724E-11;
-1,77799659632015E-11;
-1,6030428278282E-11;
-1,34755097646696E-11;
-1,69761447905635E-12;
1,59521053831116E-11;
3,05150055356783E-11;
3,58162821205346E-11;
3,33887809553316E-11;
3,27852265287565E-11;
4,3077471971295E-11;
6,05226429159659E-11;
7,18730280998252E-11;
6,25288427751055E-11;
2,58573030140944E-11;
-2,54896568834094E-11;
-6,89784163049508E-11;
-8,69888616616851E-11;
-7,71330960443637E-11;
-5,24338578172221E-11;
-2,89705264066154E-11;
-1,7268169723246E-11;
-1,46597102449782E-11;
-1,23795629600276E-11;
-3,27298335094782E-12;
1,34185864563482E-11;
2,74151040036427E-11;
3,18939870679673E-11;
2,91740504335936E-11;
2,84941781643122E-11;
3,81234602218226E-11;
5,44421260271104E-11;
6,62652255277964E-11;
5,86826616009774E-11;
2,53074978059834E-11;
-2,14564563763613E-11;
-6,15500107146448E-11;
-7,85048598118268E-11;
-7,00311165155874E-11;
-4,81620949018373E-11;
-2,70017768524183E-11;
-1,69050852007794E-11;
-1,53009555231727E-11;
-1,23036912201837E-11;
-3,39369874656122E-12;
1,14147474994597E-11;
2,3670761466061E-11;
2,74039987890854E-11;
2,67560217048635E-11;
2,69622799542411E-11;
3,49880106548576E-11;
5,05936081600365E-11;
6,09263963773602E-11;
5,31250711013507E-11;
2,36501568340652E-11;
-1,7655408700814E-11;
-5,35950576627856E-11;
-6,96803226857816E-11;
-6,27233834509005E-11;
-4,33677135210561E-11;
-2,5219699257502E-11;
-1,57751067833512E-11;
-1,32501367088995E-11;
-1,15112792009109E-11;
-4,39016076628434E-12;
9,60005273572653E-12;
2,11862005063004E-11;
2,44444874575845E-11;
2,34405187687232E-11;
2,41148420118266E-11;
3,16381462073375E-11;
4,50705872168763E-11;
5,44828412855604E-11;
4,80252766078606E-11;
2,23848579416033E-11;
-1,46388295398044E-11;
-4,72057861512979E-11;
-6,16536319345431E-11;
-5,64823548289198E-11;
-3,9202032489775E-11;
-2,25022617202406E-11;
-1,43667503625126E-11;
-1,24703346008145E-11;
-1,11592378794707E-11;
-4,51998101426679E-12;
7,53377705087187E-12;
1,78105108774741E-11;
2,11748985579224E-11;
1,9869355738372E-11;
1,9655648227202E-11;
2,67888339580395E-11;
4,06870353367813E-11;
4,98391673120633E-11;
4,4095491564257E-11;
2,11556610684514E-11;
-1,14378454138198E-11;
-4,06370466320213E-11;
-5,46066594417009E-11;
-4,93662632902184E-11;
-3,45210061460665E-11;
-2,0058144282564E-11;
-1,26251298456938E-11;
-1,21688564952749E-11;
-1,00384894210795E-11;
-3,61819966706663E-12;
5,85221083863794E-12;
1,52620003184944E-11;
1,9310610871049E-11;
1,78977068322705E-11;
1,77214740109345E-11;
2,51617837213929E-11;
3,66000012292642E-11;
4,29872234806785E-11;
3,84571636030989E-11;
2,02979627594093E-11;
-8,50673554419966E-12;
-3,46435961586354E-11;
-4,62251270399574E-11;
-4,30486343616763E-11;
-3,02035320249223E-11;
-1,72321792685826E-11;
-1,17509210975247E-11;
-1,06920057882328E-11;
-8,94896445362652E-12;
-3,70642060842528E-12;
5,25742624436555E-12;
1,23214843109289E-11;
1,46046093976763E-11;
1,44725192013614E-11;
1,50629181699043E-11;
2,09434078810989E-11;
3,1474630822087E-11;
3,8826033936076E-11;
3,52582431510477E-11;
1,81316458173901E-11;
-7,56296463757233E-12;
-3,00972302343772E-11;
-4,00064555262956E-11;
-3,71467309582171E-11;
-2,65407676251482E-11;
-1,53875035904194E-11;
-1,0149722184591E-11;
-1,01559632984862E-11;
-9,2690743348942E-12;
-4,07653139706471E-12;
3,54853091596534E-12;
1,04245970026937E-11;
1,33816785685646E-11;
1,23691523499382E-11;
1,37767635392413E-11;
1,98878439831121E-11;
2,75628281345912E-11;
3,35661217807047E-11;
3,08204827555362E-11;
1,65212361324027E-11;
-4,39100171288998E-12;
-2,43433233145632E-11;
-3,39923675139183E-11;
-3,14257705035831E-11;
-2,25176259750579E-11;
-1,3409520542767E-11;
-9,2863610294436E-12;
-9,29827688166447E-12;
-8,28653805588733E-12;
-3,69103424982903E-12;
2,50142471469963E-12;
7,66836352058144E-12;
1,06027793408441E-11;
1,05808462891993E-11;
1,14239027636591E-11;
1,55590287823615E-11;
2,17524989686029E-11;
2,79340082346179E-11;
2,66714536275346E-11;
1,45598087838189E-11;
-2,61873550688658E-12;
-1,89047306275876E-11;
-2,81951218676428E-11;
-2,62078055082683E-11;
-1,85433300515945E-11;
-1,22158511250264E-11;
-8,61918437676012E-12;
-7,93106747847139E-12;
-7,1182977304438E-12;
-4,47880538055907E-12;
5,17371879500687E-13;
6,4643643302548E-12;
8,56283856178618E-12;
8,2935629737937E-12;
9,0613975974955E-12;
1,36363034215456E-11;
2,05457495454581E-11;
2,46643511096022E-11;
2,37122224293363E-11;
1,3692863372356E-11;
-2,09727907861031E-12;
-1,48168040714637E-11;
-2,22124768738982E-11;
-2,23901698651452E-11;
-1,57231991892383E-11;
-9,96606036841647E-12;
-7,83930493028766E-12;
-7,52860821446163E-12;
-7,34372989226138E-12;
-3,16510386358127E-12;
2,08210599415967E-12;
4,70695470425575E-12;
6,61895405783074E-12;
7,32972230743223E-12;
7,18364639448652E-12;
1,07786524351349E-11;
1,71072933139689E-11;
2,08052833070006E-11;
2,0054214758949E-11;
1,21556512959901E-11;
-5,24758714053494E-13;
-1,19891432255097E-11;
-1,81897649553504E-11;
-1,74213990299298E-11;
-1,35775255274718E-11;
-9,34667338149475E-12;
-6,79255720665955E-12;
-6,63457599375617E-12;
-6,46420661845817E-12;
-4,36690940325244E-12;
-4,49733711417852E-13;
2,54353492895962E-12;
4,81512897727752E-12;
5,39725704272898E-12;
5,98351288062101E-12;
9,76870973594764E-12;
1,31113473340734E-11;
1,71820119120719E-11;
1,76271614380184E-11;
1,02167092915641E-11;
1,27887358094034E-12;
-8,39764261960482E-12;
-1,41828683587663E-11;
-1,35636243988812E-11;
-1,04663054851265E-11;
-6,4112359253119E-12;
-5,60057339706866E-12;
-6,38597740360949E-12;
-5,40987134057181E-12;
-3,80907029231529E-12;
-8,87143682656613E-13;
2,19050774501992E-12;
3,76732637813427E-12;
4,71628521052284E-12;
5,35645756949554E-12;
7,22329788859822E-12;
1,08655565272717E-11;
1,38865638345011E-11;
1,39427944924396E-11;
9,51529949673556E-12;
1,69289681149232E-12;
-5,95034427989329E-12;
-9,74149810185639E-12;
-1,02165648438207E-11;
-8,37713801040161E-12;
-4,91045298823776E-12;
-4,44266800714114E-12;
-5,33950960906656E-12;
-4,2217155367046E-12;
-3,55744047769949E-12;
-1,72851305432768E-12;
1,26036953172346E-12;
1,63910349737207E-12;
1,86012057085808E-12;
3,34938358190213E-12;
5,14222672139232E-12;
8,30715125656774E-12;
1,12754908404334E-11;
1,19207822316355E-11;
8,68488151452657E-12;
2,90547625750712E-12;
-2,7905895164136E-12;
-6,98237008351022E-12;
-7,46966487999196E-12;
-6,33361117133723E-12;
-4,5468003136555E-12;
-2,94932242909175E-12;
-3,83286647286796E-12;
-3,97788343386908E-12;
-3,41532048133594E-12;
-2,10363677566373E-12;
1,06894700152653E-12;
1,71101908199638E-12;
1,34449354431767E-12;
3,04426307229543E-12;
4,69708066439527E-12;
6,50992844460749E-12;
9,19247666794715E-12;
9,98160990734538E-12;
7,00198926405527E-12;
3,0074912305007E-12;
-1,2160669764798E-12;
-4,41067985682063E-12;
-4,6181557987925E-12;
-4,81301800250707E-12;
-4,27494345452553E-12;
-2,8232926159826E-12;
-2,95018548187723E-12;
-3,17669524772872E-12;
-3,06861964124301E-12;
-2,00466992597547E-12;
-2,52441638309629E-13;
1,17927412764772E-13;
9,77857806114891E-13;
2,1031659045314E-12;
2,20032381327737E-12;
4,39138559754577E-12;
7,52483012710734E-12;
7,92512570700654E-12;
6,29975566392897E-12;
3,61975657176458E-12;
3,5472885949474E-13;
-1,8140021794554E-12;
-3,20294773152872E-12;
-3,76676300958654E-12;
-2,63613098458578E-12;
-2,71292642279561E-12;
-3,44187949842288E-12;
-3,05764561354114E-12;
-2,43181958618717E-12;
-1,08036063070696E-12;
-6,83395979753911E-13;
-2,30419649288963E-13;
4,87028249916783E-13;
1,69095406561981E-13;
1,67877995206137E-12;
3,75388951259074E-12;
4,73492749510423E-12;
5,38101408222036E-12;
5,00776635677182E-12;
3,96437100585517E-12;
2,5097597223331E-12;
1,30241379713598E-12;
4,2711740805614E-13;
-1,32042267475334E-12;
-1,78724585960588E-12;
-1,8325619473669E-12;
-2,91866554029786E-12;
-2,46542003427152E-12;
-2,30919650485889E-12;
-2,26415835470231E-12;
-1,54449194451481E-12;
-1,04858816706969E-12;
1,08709168351141E-13;
2,49605828795399E-13;
7,65011620785655E-13;
2,18679771885536E-12;
2,78721271586329E-12;
4,03112948315654E-12;
4,59878996064533E-12;
4,04294856287281E-12;
3,08060782982056E-12;
1,20716613054401E-12;
4,68475398205656E-13;
6,46409798967143E-14;
-7,23872325805059E-13;
-1,30616205162121E-12;
-1,81792750962305E-12;
-1,60682705433763E-12;
-2,20546041865366E-12;
-2,04220502368552E-12;
-1,68998270873692E-12;
-2,14577518562981E-12;
-7,30203322243424E-13;
-3,04110746898672E-13;
-5,41290200323021E-13;
2,07992871852624E-13;
9,8825151591522E-13;
2,11882847283713E-12;
2,74181632441069E-12;
4,26252022914885E-12;
4,94298489975097E-12;
3,36262359825545E-12;
2,34067893333877E-12;
1,03447268527204E-12;
-4,85549684003933E-13;
-1,50347231777111E-12;
-2,00266669417289E-12;
-2,01204170300301E-12;
-1,86984825289471E-12;
-1,76539625521565E-12;
-2,60922455102067E-12;
-1,88071268434779E-12;
-7,4408494369109E-13;
-1,16362393834961E-12;
-9,03661617340709E-13;
-6,56819521086957E-13;
-1,42319498281726E-13;
6,37391604845612E-13;
2,54603039802202E-12;
5,08714390397511E-12;
5,30852932577983E-12;
4,92792493516676E-12;
3,23552807768092E-12;
1,07160402816801E-12;
2,01375316698494E-13;
-1,02889861493538E-12;
-7,57347189854225E-13;
-6,89735838877213E-13;
-1,42996436011945E-12;
-1,95808092177505E-12;
-3,15498652624331E-12;
-2,32529675800295E-12;
-1,64325152827521E-12;
-1,92911714114153E-12;
-1,38621198164098E-12;
-1,85776768519122E-12;
-1,29478059724573E-12;
5,4168749399032E-13;
2,11294906511775E-12;
4,38799773471882E-12;
5,46623385173615E-12;
5,40623315015091E-12;
4,79723126427684E-12;
2,69791440840127E-12;
9,69175295872619E-13;
-4,99641319092041E-13;
-9,34233364412161E-13;
-3,9951191353106E-13;
-1,11028597596043E-12;
-1,76196387572671E-12;
-2,22252051837527E-12;
-2,2178540001419E-12;
-1,66605781235302E-12;
-1,70389364496449E-12;
-1,80321137759419E-12;
-2,02511077526135E-12;
-1,89020934180451E-12;
-1,03524320370274E-12;
1,33035183367212E-12;
5,18622839675935E-12;
6,61761428295292E-12;
5,87459004207728E-12;
4,81534171853321E-12;
2,44275661764459E-12;
7,90540431403247E-13;
3,37992123273407E-13;
-4,33999128628608E-13;
-1,23542302957581E-12;
-2,15104826573047E-12;
-2,84067403312673E-12;
-2,70960423229441E-12;
-2,08463769024942E-12;
-1,61460826985573E-12;
-1,84973012842106E-12;
-1,93052960829694E-12;
-2,23225842493887E-12;
-3,40606768039475E-12;
-2,51933643563633E-12;
1,04747667180723E-12;
4,6433921652915E-12;
6,47297528611066E-12;
7,01236387549529E-12;
6,04430285097305E-12;
3,13591980276178E-12;
1,40707290601008E-12;
8,84356451982203E-13;
4,75704057116003E-14;
-7,9618746854745E-13;
-1,38676602574437E-12;
-1,83427638350665E-12;
-2,75767876005919E-12;
-2,54004478246995E-12;
-2,04725855802887E-12;
-2,21462327792147E-12;
-2,17654419077388E-12;
-2,82674558579285E-12;
-2,78111314176407E-12;
-1,82271400165228E-12;
3,87163310452331E-13;
4,21768371398621E-12;
6,86886853069534E-12;
7,82404022479881E-12;
6,30040370784294E-12;
3,49031232637324E-12;
2,06760340487561E-12;
5,54441486347348E-13;
-9,0205650428212E-14;
2,3245512960011E-13;
-4,84743057125513E-13;
-1,54803545046929E-12;
-2,95231655758328E-12;
-3,0729208300039E-12;
-1,73107850803505E-12;
-1,89011859030822E-12;
-2,97132639058747E-12;
-4,09596667940975E-12;
-4,19547723146301E-12;
-2,21140137370624E-12;
4,2011049920037E-13;
3,38260787730923E-12;
6,12579239338701E-12;
7,37830312924642E-12;
5,62946452236953E-12;
3,03523865104969E-12;
2,15602736802406E-12;
9,98116609723029E-13;
7,51927540811673E-13;
9,14296346550953E-13;
-4,39815081018701E-13;
-1,27878386684026E-12;
-2,28878750499392E-12;
-3,10520573276444E-12;
-2,12050983067099E-12;
-1,57580889441841E-12;
-2,502669341032E-12;
-3,28562911069676E-12;
-3,36901001272028E-12;
-2,81448366979192E-12;
-1,226686054261E-13;
3,5096196710751E-12;
6,37864271033833E-12;
7,93697391932587E-12;
6,2249907332849E-12;
3,59286953213264E-12;
1,51699628017426E-12;
5,75159532849208E-13;
1,5660521738201E-12;
7,33449462939536E-13;
-7,95272748801272E-13;
-1,84773300188263E-12;
-3,45066844613174E-12;
-2,98947587134871E-12;
-2,38229639848864E-12;
-2,63340394262498E-12;
-2,22604538337463E-12;
-2,44886051634102E-12;
-3,49254297507838E-12;
-3,4580547360098E-12;
-1,78942777995339E-14;
3,84514551729164E-12;
6,12241647274926E-12;
7,40852520818618E-12;
6,12298393625861E-12;
3,97419184171799E-12;
2,33000447816314E-12;
1,83739189444528E-12;
1,685698034158E-12;
6,67262946624016E-13;
1,63212591290671E-13;
-8,42621151219112E-13;
-2,29528226910457E-12;
-3,0271930216093E-12;
-2,65591446093458E-12;
-1,87764089738573E-12;
-2,33897777785204E-12;
-3,34732247426257E-12;
-4,01092728072915E-12;
-3,21861084658217E-12;
-3,55730566497452E-13;
2,91601729446955E-12;
5,52782740848934E-12;
6,7811049158054E-12;
5,70258509119726E-12;
3,97918324746709E-12;
2,55689802760527E-12;
1,1258517402948E-12;
6,5628555717237E-13;
7,32860346115462E-13;
4,09948066607217E-13;
-1,0853502106634E-12;
-2,20331476144133E-12;
-2,10475216491358E-12;
-1,95517372686684E-12;
-1,91182099102404E-12;
-2,92547427511204E-12;
-4,08246823082442E-12;
-4,03630922771701E-12;
-2,94959989129413E-12;
-5,57406176148622E-13;
3,11374255928393E-12;
5,92603841391027E-12;
6,39190109838113E-12;
5,76596064973745E-12;
3,6755217150307E-12;
1,327128770711E-12;
1,34038096251983E-12;
1,52794174432624E-12;
6,39612667429642E-13;
1,87404443665632E-13;
-9,98053062497398E-13;
-2,36872115887054E-12;
-2,1408780366485E-12;
-1,68452254522137E-12;
-1,70249956240936E-12;
-2,48388640002018E-12;
-3,3382423571036E-12;
-3,68470604689791E-12;
-3,36287507568065E-12;
-6,78005849760484E-13;
2,70707755281331E-12;
5,44093012029624E-12;
6,65306628295135E-12;
5,25038164640807E-12;
3,90379883031853E-12;
2,38559255297521E-12;
8,95582247295981E-13;
7,38654261420455E-13;
4,43282127146624E-13;
-3,67121481739897E-14;
-9,26543756696935E-13;
-1,56170995716373E-12;
-2,0967288002855E-12;
-2,15760783429312E-12;
-1,36389938047001E-12;
-2,74320212324932E-12;
-3,94023971293061E-12;
-3,4964184783347E-12;
-3,36702443598366E-12;
-1,34660251987752E-12;
2,01697194626697E-12;
4,75798109305878E-12;
6,38234120704293E-12;
6,2225289395147E-12;
4,4624326576203E-12;
2,13302361404725E-12;
1,0901609079396E-12;
1,52112654329151E-12;
1,86776673815998E-12;
7,07764878898325E-13;
-6,42598034235879E-13;
-1,77014460673592E-12;
-2,26321765343105E-12;
-9,29361329941423E-13;
-9,03274218721769E-13;
-2,50927137416657E-12;
-3,76582549283811E-12;
-3,74574143844654E-12;
-2,78769766680495E-12;
-1,07379329393692E-12;
0,00933343404879461;
0,0226297298303434;
0,0163727372817038;
0,00943309618244042;
0,0121693917892641;
0,00702616733350423;
0,00563481713118687;
0,00458271005374894;
0,000840500090926255;
0,00103239237243892;
-0,00119043949714105;
-0,0019919526599521;
-0,00280713693661129;
-0,00455368132171668;
-0,00488732500177787;
-0,00585590071096609;
-0,00594121727567958;
-0,0061824883263834;
-0,00699357667208875;
-0,0079207035482554;
-0,00934888799271687;
-0,010242888707886;
-0,0105184993884341;
-0,0101085231380885;
-0,0092076646637354;
-0,00843029679981872;
-0,00783043416757521;
-0,00745747149639496;
-0,007048053277682;
-0,00641867706818563;
-0,00567545363277121;
-0,00495848727328459;
-0,00445308141584917;
-0,00409076741338755;
-0,00366382587006025;
-0,00302656743944051;
-0,00222823254653551;
-0,00157282907688307;
-0,00136107646302684;
-0,00166524557516109;
-0,00222572542060995;
-0,00258706176902763;
-0,00240676231611429;
-0,00165718471165544;
-0,000624734011573857;
0,000316669699339444;
0,00096366352368969;
0,00137586886988341;
0,00176513174914302;
0,00227846193185833;
0,0028737118360593;
0,00337820905121552;
0,00366494227334152;
0,00378442558988036;
0,00392474763514191;
0,00423344806075823;
0,00465410314528014;
0,00492912948201951;
